Sample,Fetal ECG,Annotation
0,0.00023801499085554867,N
1,0.0015736557328529064,N
2,0.0027727504645037628,N
3,0.0037190503058544397,N
4,0.004319881134702437,N
5,0.0045143288938346866,N
6,0.004278007694544131,N
7,0.0036240441443208407,N
8,0.002600377994482289,N
9,0.0012838802099479256,N
10,-0.00022791196815900684,N
11,-0.001826454027552357,N
12,-0.003402177095705448,N
13,-0.004853759164340635,N
14,-0.006095809055394051,N
15,-0.0070643612261907076,N
16,-0.007719918019287087,N
17,-0.008048104808110816,N
18,-0.008058253186307662,N
19,-0.007780361320396464,N
20,-0.0072609057363005455,N
21,-0.006557935853719979,N
22,-0.005735821348261715,N
23,-0.004859976470455918,N
24,-0.003991861898269717,N
25,-0.0031845518440819054,N
26,-0.002479135653099847,N
27,-0.001902187703718321,N
28,-0.001464482707313999,N
29,-0.001161055347486748,N
30,-0.000972605775254888,N
31,-0.0008681420678485036,N
32,-0.0008086391059637196,N
33,-0.0007513953694342601,N
34,-0.0006546998194213765,N
35,-0.000482391961338003,N
36,-0.0002079124996803432,N
37,0.0001825086142212441,N
38,0.0006878093878583445,N
39,0.0012913979294249599,N
40,0.0019619029886170213,N
41,0.0026553621094283523,N
42,0.0033187055919262467,N
43,0.003894260190644879,N
44,0.004324881652655016,N
45,0.0045592515685771474,N
46,0.004556853837111748,N
47,0.004292179305343987,N
48,0.0037577829882882463,N
49,0.0029659206113055304,N
50,0.0019486067611442146,N
51,0.0007560590693691147,N
52,-0.0005463817659876449,N
53,-0.0018826439187261499,N
54,-0.0031713078225341185,N
55,-0.004331577683319637,N
56,-0.005289385446912627,N
57,-0.005983147483531158,N
58,-0.006368696770763025,N
59,-0.006422948006432739,N
60,-0.006145928663780253,N
61,-0.0055609286995698705,N
62,-0.004712680236008766,N
63,-0.00366366362482361,N
64,-0.002488827391704154,N
65,-0.001269180170803659,N
66,-8.483888122076485e-05,N
67,0.0009918154231984687,N
68,0.0019022201335928608,N
69,0.0026063614419249304,N
70,0.003085688062232922,N
71,0.0033439245885352226,N
72,0.0034057189227249696,N
73,0.003313287864172239,N
74,0.0031214345451464867,N
75,0.0028914716306757634,N
76,0.0026846763104724017,N
77,0.002555922749646938,N
78,0.0025480932833649725,N
79,0.002687776580719695,N
80,0.0029826340022643836,N
81,0.0034206638539064035,N
82,0.003971422779072413,N
83,0.0045890822176055494,N
84,0.005217020991090986,N
85,0.00579350263137301,N
86,0.0062578758672030554,N
87,0.006556680634612944,N
88,0.006649046750093668,N
89,0.006510840360105586,N
90,0.006137141389711831,N
91,0.005542812123719866,N
92,0.004761121549511846,N
93,0.0038405943804879915,N
94,0.0028404308445513825,N
95,0.0018249740345819532,N
96,0.0008577771118957175,N
97,-4.156602262811831e-06,N
98,-0.0007154171936557031,N
99,-0.0012460484736944546,N
100,-0.0015838778991429368,N
101,-0.001735121768848137,N
102,-0.00172323984090608,N
103,-0.001586178833354658,N
104,-0.001372290983645513,N
105,-0.0011353305173757292,N
106,-0.0009290103507556446,N
107,-0.0008016396040310059,N
108,-0.0007913555278277232,N
109,-0.0009224077540768002,N
110,-0.00120285042483142,N
111,-0.001623858390221546,N
112,-0.0021607215818112008,N
113,-0.0027754031691753596,N
114,-0.0034203903259008477,N
115,-0.004043439675611919,N
116,-0.004592736507005665,N
117,-0.005021953680648483,N
118,-0.005294713536169313,N
119,-0.005388022928829658,N
120,-0.005294363276402463,N
121,-0.00502226240905848,N
122,-0.004595334203838762,N
123,-0.004049924178607033,N
124,-0.003431626118823727,N
125,-0.0027910244121334307,N
126,-0.0021790643398506373,N
127,-0.001642460322178524,N
128,-0.00121952769200058,N
129,-0.0009367764938765754,N
130,-0.0008065431226437674,N
131,-0.0008258601208830529,N
132,-0.0009766763607254203,N
133,-0.0012274403272248327,N
134,-0.0015359528450993093,N
135,-0.0018532892780474006,N
136,-0.0021284915034694763,N
137,-0.0023136420220949577,N
138,-0.0023688632439989392,N
139,-0.002266747183351901,N
140,-0.0019957321771748885,N
141,-0.0015620169021250485,N
142,-0.000989737012939144,N
143,-0.0003193097861350836,N
144,0.0003959494622062495,N
145,0.001094647483777583,N
146,0.0017131234892716098,N
147,0.002191696467341417,N
148,0.002480743856105538,N
149,0.002546011908968047,N
150,0.0023726204992954246,N
151,0.001967336972099077,N
152,0.0013588448665267686,N
153,0.0005959133732488176,N
154,-0.00025642888346869323,N
155,-0.0011224111934383673,N
156,-0.001922239920366356,N
157,-0.002579383574808267,N
158,-0.003027700155688113,N
159,-0.00321767159790593,N
160,-0.003121085787728951,N
161,-0.002733666237354584,N
162,-0.0020753715451536413,N
163,-0.0011883375192186347,N
164,-0.0001326812828721544,N
165,0.0010193951882327818,N
166,0.0021905912636998033,N
167,0.0033058588890659737,N
168,0.004299353709815647,N
169,0.005120262130883137,N
170,0.00573690203339783,N
171,0.006138686500311939,N
172,0.00633578150759331,N
173,0.006356550362900526,N
174,0.00624312390848629,N
175,0.006045633850515739,N
176,0.005815777107718674,N
177,0.005600434829090592,N
178,0.005436050797983726,N
179,0.005344383159407003,N
180,0.005330087360499,N
181,0.0053803801941293425,N
182,0.00546679636385164,N
183,0.0055488085950693425,N
184,0.005578871485383333,N
185,0.0055082958391490106,N
186,0.005293282398324644,N
187,0.004900447689737326,N
188,0.004311254030807502,N
189,0.0035248942052683824,N
190,0.0025593569852206586,N
191,0.0014505910017814407,N
192,0.00024987357045254356,N
193,-0.000980337571345377,N
194,-0.002171653569509309,N
195,-0.003255597791307821,N
196,-0.004169499558162038,N
197,-0.004861910736749173,N
198,-0.005297079534602462,N
199,-0.005458115304718273,N
200,-0.005348604986334394,N
201,-0.004992581279276269,N
202,-0.004432877945876345,N
203,-0.0037280257258680244,N
204,-0.0029479368335060415,N
205,-0.0021686960391467005,N
206,-0.0014668248773538034,N
207,-0.0009134172325637466,N
208,-0.0005685622045205207,N
209,-0.00047647121119427416,N
210,-0.0006617032510566592,N
211,-0.0011268269190380673,N
212,-0.0018517654806994679,N
213,-0.0027949439019804177,N
214,-0.0038962051305255394,N
215,-0.005081305544930644,N
216,-0.006267654462439288,N
217,-0.007370841660524434,N
218,-0.008311408014217956,N
219,-0.009021267549660641,N
220,-0.009449195843220303,N
221,-0.009564866530182133,N
222,-0.009361042648319181,N
223,-0.008853701602260148,N
224,-0.008080073586044182,N
225,-0.007094781079249225,N
226,-0.005964459352386439,N
227,-0.004761396100183676,N
228,-0.003556836922324526,N
229,-0.002414648308373116,N
230,-0.0013859998836854167,N
231,-0.0005056191234094485,N
232,0.0002100087932421897,N
233,0.0007623572610772931,N
234,0.001168608270088313,N
235,0.0014577927697596862,N
236,0.001665861815495349,N
237,0.0018303336055575737,N
238,0.001985179721948195,N
239,0.0021565497627422186,N
240,0.0023597995392416822,N
241,0.0025981049574212967,N
242,0.002862737087852499,N
243,0.0031348688973311476,N
244,0.0033886056373869985,N
245,0.0035948035876978666,N
246,0.003725182666497393,N
247,0.003756248345586382,N
248,0.0036726036988887637,N
249,0.0034693347383429694,N
250,0.0031532757953031793,N
251,0.0027430938841315447,N
252,0.0022682589489470203,N
253,0.001767077520353161,N
254,0.0012840494338213035,N
255,0.0008668534341410009,N
256,0.0005632741943439587,N
257,0.00041835083103452196,N
258,0.0004719597836430492,N
259,0.0007569517270735925,N
260,0.0012978568729158958,N
261,0.0021100743171770455,N
262,0.0031993888241494965,N
263,0.0045616271182776485,N
264,0.006182280151718624,N
265,0.008035972442361095,N
266,0.010085741314007515,N
267,0.012282181758267027,N
268,0.014562602942798299,N
269,0.016850420513730435,N
270,0.019055067379976337,N
271,0.02107273714680375,N
272,0.02278827118775357,N
273,0.02407845534426634,N
274,0.02481689863258223,N
275,0.024880520099853955,A
276,0.024157476198096002,N
277,0.02255613840790868,N
278,0.020014508972140025,N
279,0.016509275626215666,N
280,0.012063586403210627,N
281,0.006752596965784369,N
282,0.0007059182312914842,N
283,-0.005893724497020974,N
284,-0.01281602190628387,N
285,-0.019792827879943787,N
286,-0.026531728466986464,N
287,-0.03273261607748893,N
288,-0.03810608354171911,N
289,-0.04239218471637012,N
290,-0.04537798234903495,N
291,-0.0469123465977367,N
292,-0.04691668277712728,N
293,-0.045390632880058554,N
294,-0.04241226875186407,N
295,-0.03813281606394512,N
296,-0.032766449372749806,N
297,-0.026576114580240378,N
298,-0.01985661885109618,N
299,-0.012916360407294686,N
300,-0.006059060885308892,N
301,0.00043325963307870385,N
302,0.006315023401579727,N
303,0.011388751997081122,N
304,0.01551310139886543,N
305,0.018607000863193376,N
306,0.02064987425526446,N
307,0.021678155920489495,N
308,0.021778521800009658,N
309,0.021078435400301014,N
310,0.0197347508158691,N
311,0.017921212832795335,N
312,0.01581573883418559,N
313,0.013588353553857605,N
314,0.011390575529186287,N
315,0.0093469286504704,N
316,0.00754908288197997,N
317,0.006052926007608704,N
318,0.004878644611062798,N
319,0.004013660685454728,N
320,0.003418046015694791,N
321,0.0030318375415606166,N
322,0.002783523397318082,N
323,0.0025988828532119783,N
324,0.002409360883138191,N
325,0.002159243028792932,N
326,0.0018110551345873833,N
327,0.0013488186299289873,N
328,0.0007790125913811775,N
329,0.00012929933942727674,N
330,-0.0005547565387543325,N
331,-0.001214608302815015,N
332,-0.001784813185086328,N
333,-0.002199736993895811,N
334,-0.002400293560700218,N
335,-0.002340146900147839,N
336,-0.001990864173159624,N
337,-0.0013456056677876658,N
338,-0.0004210582696180181,N
339,0.0007425506753317954,N
340,0.002083387496600157,N
341,0.0035217869302632252,N
342,0.004965626915408494,N
343,0.006316936819374946,N
344,0.007479258094964375,N
345,0.008365181757586632,N
346,0.008903425977651572,N
347,0.009044806947796268,N
348,0.008766512277589393,N
349,0.008074215042208194,N
350,0.007001761976780607,N
351,0.0056084123967368605,N
352,0.0039738668275198005,N
353,0.0021915706396690013,N
354,0.0003609703682109269,N
355,-0.001420492279112293,N
356,-0.003064856480176801,N
357,-0.004499885233627519,N
358,-0.005673538543564763,N
359,-0.006556356243839771,N
360,-0.00714166387617419,N
361,-0.007443738429653871,N
362,-0.007494262573082431,N
363,-0.007337543084665593,N
364,-0.007025061254385517,N
365,-0.0066099503576134136,N
366,-0.006141953921680693,N
367,-0.005663317054994568,N
368,-0.005205922159580987,N
369,-0.0047898244285360745,N
370,-0.004423191691381411,N
371,-0.004103520345091697,N
372,-0.003819892319337679,N
373,-0.0035559616136586936,N
374,-0.0032933135913657896,N
375,-0.003014825741910627,N
376,-0.0027076763908350132,N
377,-0.0023656971421097813,N
378,-0.001990838414472324,N
379,-0.0015936046616756997,N
380,-0.001192409926579501,N
381,-0.0008119029761777577,N
382,-0.00048041072104657565,N
383,-0.0002267399365428193,N
384,-7.664855581258708e-05,N
385,-4.9339531979968604e-05,N
386,-0.00015433892297103425,N
387,-0.00038909758369774967,N
388,-0.0007376069378766532,N
389,-0.0011702459981878773,N
390,-0.0016449793848749808,N
391,-0.002109907162604941,N
392,-0.002507034765483699,N
393,-0.002776997941016818,N
394,-0.0028643596008398084,N
395,-0.0027230088862474624,N
396,-0.002321149995421313,N
397,-0.0016453764351035186,N
398,-0.0007033875074204527,N
399,0.000474985362576883,N
400,0.0018386243254431534,N
401,0.003317849849052658,N
402,0.004828851002687436,N
403,0.006279482322815456,N
404,0.007575958798763898,N
405,0.00862990170586203,N
406,0.009365161828593316,N
407,0.009723864765172294,N
408,0.009671177781961762,N
409,0.009198388423488083,N
410,0.008324013351235887,N
411,0.0070928165653586115,N
412,0.005572794477080865,N
413,0.0038503611767929822,N
414,0.002024121771816572,N
415,0.00019774089443664634,N
416,-0.0015275116528903965,N
417,-0.0030599314488434946,N
418,-0.0043236877152846255,N
419,-0.005263770142447868,N
420,-0.005849198485605346,N
421,-0.006074273862404028,N
422,-0.0059578199774225245,N
423,-0.005540529446200077,N
424,-0.004880682324948387,N
425,-0.004048632678676927,N
426,-0.00312055693081644,N
427,-0.002172015810941605,N
428,-0.0012718923810668978,N
429,-0.0004772289267850387,N
430,0.00017060317606649428,N
431,0.0006480992927658476,N
432,0.000950048626914858,N
433,0.0010882420755715817,N
434,0.0010886881120896433,N
435,0.0009877109975393386,N
436,0.0008274024184518831,N
437,0.0006509347026464695,N
438,0.0004982219737763528,N
439,0.0004023428818841625,N
440,0.0003870259621969793,N
441,0.0004653590000418749,N
442,0.0006397324460847292,N
443,0.0009028824882784055,N
444,0.001239780531810765,N
445,0.001630036340670557,N
446,0.002050448538286139,N
447,0.002477349597331185,N
448,0.0028884503591947775,N
449,0.0032639855122058663,N
450,0.003587086076428483,N
451,0.003843442720834795,N
452,0.004020454141900951,N
453,0.00410615242816637,N
454,0.004088237952500526,N
455,0.003953527489191445,N
456,0.003688028872820364,N
457,0.0032777285078577374,N
458,0.0027100429908309886,N
459,0.0019757642276736,N
460,0.001071232309364491,N
461,4.133983524788761e-07,N
462,-0.001223448769325366,N
463,-0.002576893629678512,N
464,-0.004026204316535878,N
465,-0.00552831564947758,N
466,-0.007032560690388785,N
467,-0.00848301007468556,N
468,-0.009821077005513905,N
469,-0.010988055755574551,N
470,-0.011927331998790201,N
471,-0.012586130209500584,N
472,-0.01291681607911179,N
473,-0.01287791594929217,N
474,-0.012435119249292591,N
475,-0.01156256931655294,N
476,-0.010244707443507193,N
477,-0.008478811967652433,N
478,-0.006278182520787002,N
479,-0.0036756899232896763,N
480,-0.0007271884933928571,N
481,0.002485881270682278,N
482,0.0058554431828254025,N
483,0.00924798288400919,N
484,0.012508514313262449,N
485,0.01546755986031894,N
486,0.017951033955034026,N
487,0.01979252054266218,N
488,0.020847030656878967,N
489,0.02100496854948155,A
490,0.020204790109990448,N
491,0.018442774169673926,N
492,0.01577849013281636,N
493,0.012334933633144994,N
494,0.008292867200219127,N
495,0.0038795622305783173,N
496,-0.000647205802885553,N
497,-0.005018497824282101,N
498,-0.008975085290931188,N
499,-0.012287873336596247,N
500,-0.01477592123297516,N
501,-0.01632033996260058,N
502,-0.01687274702248853,N
503,-0.01645749185685286,N
504,-0.01516748645109523,N
505,-0.013154124128381347,N
506,-0.01061237121903809,N
507,-0.0077625950529155,N
508,-0.004830985575468927,N
509,-0.0020305018048232338,N
510,0.0004558719895056713,N
511,0.0024881092378608994,N
512,0.003977377518724659,N
513,0.004889075054792061,N
514,0.005240748485035176,N
515,0.005095454725518567,N
516,0.00455151792056275,N
517,0.0037299048051413044,N
518,0.002760587795713986,N
519,0.0017692781540848712,N
520,0.0008657897314745202,N
521,0.00013504899588754767,N
522,-0.00036857080849132183,N
523,-0.0006233017933441863,N
524,-0.0006385218928431825,N
525,-0.00045023635358672876,N
526,-0.00011422705573381935,N
527,0.00030222908326310463,N
528,0.0007291059613618611,N
529,0.0011019106295911143,N
530,0.0013687004997379301,N
531,0.0014952224197117973,N
532,0.0014677851959266656,N
533,0.001293715307196999,N
534,0.0009994809450346953,N
535,0.0006267882246160374,N
536,0.00022713972100084226,N
537,-0.00014451735253963945,N
538,-0.0004363515138702011,N
539,-0.000605709876551659,N
540,-0.0006240443785895657,N
541,-0.00048019400477374935,N
542,-0.00018169848779124405,N
543,0.00024596763071419483,N
544,0.0007621326724982803,N
545,0.0013153281863347774,N
546,0.001848876342252877,N
547,0.0023070667630911666,N
548,0.0026412566712725005,N
549,0.0028152234528268484,N
550,0.0028091675552906533,N
551,0.002621908928784453,N
552,0.002271030260232179,N
553,0.0017909654758270842,N
554,0.0012292719551852736,N
555,0.0006415232062567426,N
556,8.539434252882708e-05,N
557,-0.0003854203107697859,N
558,-0.0007268175431362459,N
559,-0.0009088444558259918,N
560,-0.0009187435580036701,N
561,-0.000762182901970369,N
562,-0.00046256441096132205,N
563,-5.850972598462064e-05,N
564,0.00040018296955547135,N
565,0.0008576604663518264,N
566,0.0012576629232218767,N
567,0.001549112954978714,N
568,0.001691089756742886,N
569,0.001656719036892902,N
570,0.0014356366267427075,N
571,0.001034834210755603,N
572,0.0004778550756441035,N
573,-0.00019753513855049607,N
574,-0.0009429353139560651,N
575,-0.0017037740176286062,N
576,-0.0024242055909347764,N
577,-0.0030519701116618653,N
578,-0.003542774745103615,N
579,-0.0038638164866232195,N
580,-0.003996161061475409,N
581,-0.003935812296091555,N
582,-0.0036934388441301875,N
583,-0.0032928562176027833,N
584,-0.002768476953098052,N
585,-0.00216202759572403,N
586,-0.0015188796878944403,N
587,-0.0008843502923062348,N
588,-0.0003002968098239198,N
589,0.00019773352476066132,N
590,0.0005826246221205428,N
591,0.0008369975387467254,N
592,0.0009536936099481646,N
593,0.000935483686798912,N
594,0.0007940887575790949,N
595,0.0005486212646947251,N
596,0.00022357916487544759,N
597,-0.00015344751330228322,N
598,-0.0005541676409007469,N
599,-0.0009518644526325552,N
600,-0.0013233385708342627,N
601,-0.0016503259150824204,N
602,-0.0019202525288821754,N
603,-0.0021262680540054505,N
604,-0.00226659231836926,N
605,-0.0023432998974544936,N
606,-0.002360740766210153,N
607,-0.0023238404542121676,N
608,-0.0022365355759174344,N
609,-0.002100581053752277,N
610,-0.0019149173990954955,N
611,-0.0016757138228538592,N
612,-0.0013771108172207466,N
613,-0.0010125843068078616,N
614,-0.0005767586204461876,N
615,-6.742447808139436e-05,N
616,0.0005125189648478327,N
617,0.0011534820472585312,N
618,0.0018382197941198704,N
619,0.0025416874713667333,N
620,0.0032318398220396484,N
621,0.0038713977521509105,N
622,0.004420495850860966,N
623,0.004840012227341368,N
624,0.00509528051491764,N
625,0.005159808518795993,N
626,0.005018593810959596,N
627,0.004670640431308327,N
628,0.004130340520085576,N
629,0.0034274833609207853,N
630,0.002605784058356264,N
631,0.0017199751529334462,N
632,0.000831662450549614,N
633,4.291639377087878e-06,N
634,-0.0007023160936172284,N
635,-0.0012373395451599053,N
636,-0.0015637191465043333,N
637,-0.001661828283796769,N
638,-0.0015316711151240974,N
639,-0.0011933529922621053,N
640,-0.0006857259337272514,N
641,-6.328308905526384e-05,N
642,0.000608453248906308,N
643,0.001258653854106946,N
644,0.00181750334624307,N
645,0.0022225425247750954,N
646,0.002424447658738951,N
647,0.0023917120713879804,N
648,0.0021137942538345506,N
649,0.0016024311627141068,N
650,0.0008909735802374152,N
651,3.177469561003852e-05,N
652,-0.0009081560320152163,N
653,-0.0018528515434415194,N
654,-0.00272392063008393,N
655,-0.0034473186277982387,N
656,-0.003959743514015955,N
657,-0.004214092350863768,N
658,-0.004183507318347832,N
659,-0.0038636682227209396,N
660,-0.0032731396498381707,N
661,-0.0024517485143164502,N
662,-0.0014571418364782494,N
663,-0.00035984124627648696,N
664,0.0007627473570746154,N
665,0.0018328125687747034,N
666,0.0027785097062750447,N
667,0.003539656068641901,N
668,0.004072257383946328,N
669,0.004351493528224076,N
670,0.004372942135841609,N
671,0.004151987453109028,N
672,0.003721531527650345,N
673,0.0031282777492103874,N
674,0.0024279787936763693,N
675,0.0016801212213041572,N
676,0.0009425497192962853,N
677,0.00026651551929356517,N
678,-0.00030742535107559736,N
679,-0.0007523280921091078,N
680,-0.0010563698982297089,N
681,-0.0012228750785744534,N
682,-0.0012689242919029244,N
683,-0.0012227580743150949,N
684,-0.0011202933597234282,N
685,-0.0010011336119361424,N
686,-0.0009044661185470166,N
687,-0.0008652126460277009,N
688,-0.0009107449695952212,N
689,-0.0010584050229006708,N
690,-0.0013139877139769296,N
691,-0.0016712608405000423,N
692,-0.0021125198296345887,N
693,-0.0026101102098941517,N
694,-0.003128797123558436,N
695,-0.003628815113840702,N
696,-0.004069388828772724,N
697,-0.004412473733784124,N
698,-0.004626427075220907,N
699,-0.0046892904975624405,N
700,-0.004591358426207211,N
701,-0.004336732222968555,N
702,-0.0039436262702721965,N
703,-0.003443297360963935,N
704,-0.0028776026572006896,N
705,-0.002295338555298301,N
706,-0.0017476582328381843,N
707,-0.0012829950320983466,N
708,-0.0009420139935259639,N
709,-0.0007531546375792961,N
710,-0.0007293000922921689,N
711,-0.0008660068032157747,N
712,-0.0011415617674294769,N
713,-0.0015189198699847625,N
714,-0.0019493462581544072,N
715,-0.0023773865927795086,N
716,-0.002746640002745985,N
717,-0.003005727818702997,N
718,-0.003113836598143369,N
719,-0.0030452614941312147,N
720,-0.0027924755334904927,N
721,-0.002367388732085409,N
722,-0.0018006264474230056,N
723,-0.0011388388511084343,N
724,-0.0004402396052261503,N
725,0.00023125613041504993,N
726,0.0008127832440717039,N
727,0.001249557679898251,N
728,0.001501526682975695,N
729,0.0015489837856083538,N
730,0.0013965619825173968,N
731,0.0010751479647528775,N
732,0.0006414387769915314,N
733,0.00017506839848919822,N
734,-0.00022655770967956507,N
735,-0.00045538677504074914,N
736,-0.00040130313425393955,N
737,3.845088712442469e-05,N
738,0.0009497223185358124,N
739,0.0023925014080938105,N
740,0.004393302022863649,N
741,0.00693951435975627,N
742,0.009976247288850803,N
743,0.013406004444556984,N
744,0.017091335585632306,N
745,0.020860390746083243,N
746,0.024515096874872955,N
747,0.027841491458387716,N
748,0.03062160045838831,N
749,0.03264615077853141,N
750,0.03372736494662749,A
751,0.0337110927152716,N
752,0.03248757788146382,N
753,0.03000022372297872,N
754,0.026251797262000536,N
755,0.021307601876897227,N
756,0.015295261540528113,N
757,0.008400915065384198,N
758,0.0008618246798099998,N
759,-0.007044348937762274,N
760,-0.015013091401655639,N
761,-0.022728645123442744,N
762,-0.029880740651569652,N
763,-0.036181378227022006,N
764,-0.04138053707443043,N
765,-0.045279718644691096,N
766,-0.047742346253924234,N
767,-0.04870025312268705,N
768,-0.04815579118201516,N
769,-0.04617946404105236,N
770,-0.04290338877475989,N
771,-0.038511267761458745,N
772,-0.033225845429730116,N
773,-0.027294989143611947,N
774,-0.020977548404204814,N
775,-0.01453002280224506,N
776,-0.008194842144860888,N
777,-0.002190780499601039,N
778,0.0032942606081499707,N
779,0.008108114545355394,N
780,0.012137058383658791,N
781,0.015306680045377191,N
782,0.017581253878776303,N
783,0.018961954590712086,N
784,0.01948418266813416,N
785,0.019214201906218992,N
786,0.018245215603181934,N
787,0.01669294182821954,N
788,0.014690698599857254,N
789,0.012383984891624955,N
790,0.009924550159946671,N
791,0.007463989645504134,N
792,0.005146985949135783,N
793,0.003104428102389418,N
794,0.001446753710517233,N
795,0.00025795058005841033,N
796,-0.00040929907162913834,N
797,-0.000536858282207527,N
798,-0.00014235693224582243,N
799,0.0007218742712880435,N
800,0.001972244765302665,N
801,0.0034995964622785655,N
802,0.005176810835511882,N
803,0.006867805819526857,N
804,0.008437256219318089,N
805,0.009760292225295607,N
806,0.010731421698798989,N
807,0.011271982944338971,N
808,0.011335555772865007,N
809,0.0109109221429603,N
810,0.010022355516736733,N
811,0.008727217339105699,N
812,0.0071110408887133545,N
813,0.005280477839719303,N
814,0.003354657828459734,N
815,0.0014556492760051194,N
816,-0.00030120511143007873,N
817,-0.0018162828514404611,N
818,-0.0030132558836837966,N
819,-0.003844602911302191,N
820,-0.004294583334366061,N
821,-0.004379408423352175,N
822,-0.004144593342336496,N
823,-0.0036597382062962714,N
824,-0.0030112383569990057,N
825,-0.002293630382927408,N
826,-0.0016004143864871286,N
827,-0.001015240092050386,N
828,-0.0006043013904206756,N
829,-0.000410656049829712,N
830,-0.00045098704849853946,N
831,-0.0007150690247660218,N
832,-0.0011679239155726708,N
833,-0.0017543746151804525,N
834,-0.0024054664328027457,N
835,-0.0030460513261996664,N
836,-0.003602736657834906,N
837,-0.00401139281923472,N
838,-0.004223488621725423,N
839,-0.004210671366212716,N
840,-0.003967212793419279,N
841,-0.003510174415404802,N
842,-0.002877374387773343,N
843,-0.002123438129783975,N
844,-0.0013143713742593238,N
845,-0.0005212006232864939,N
846,0.00018671856066760042,N
847,0.0007481173225445411,N
848,0.00111538122279145,N
849,0.0012587753497542182,N
850,0.0011689514145186652,N
851,0.0008575189582938617,N
852,0.0003556480647047684,N
853,-0.0002891346370279707,N
854,-0.0010176153376860323,N
855,-0.0017645455734551728,N
856,-0.0024647093008322817,N
857,-0.003058808655740545,N
858,-0.0034986022704078033,N
859,-0.0037508121042226414,N
860,-0.0037994429852587315,N
861,-0.0036463250072794272,N
862,-0.00330987887072436,N
863,-0.0028222965929994856,N
864,-0.0022254988063383422,N
865,-0.0015663529216368463,N
866,-0.0008917008706029771,N
867,-0.0002437472543172437,N
868,0.0003436995680510493,N
869,0.0008477540984759634,N
870,0.0012575250771443296,N
871,0.001573688367692418,N
872,0.0018066965793464502,N
873,0.0019739142565572665,N
874,0.002096076580764879,N
875,0.002193522934997687,N
876,0.002282656082280929,N
877,0.0023730348828118323,N
878,0.0024654359050820434,N
879,0.002551123658539207,N
880,0.0026124524981952528,N
881,0.002624788386207616,N
882,0.0025595939108918617,N
883,0.0023883796618128983,N
884,0.0020871069457744315,N
885,0.001640547457291815,N
886,0.0010460765549578806,N
887,0.00031640343148560407,N
888,-0.0005191769793798479,N
889,-0.0014152939834234995,N
890,-0.002312883710587194,N
891,-0.0031433542393980818,N
892,-0.003834234655933773,N
893,-0.004315819456828244,N
894,-0.004528176182536765,N
895,-0.004427808844851314,N
896,-0.003993271761897875,N
897,-0.003229103591783568,N
898,-0.0021675872299848557,N
899,-0.0008680244058386683,N
900,0.0005865667233704503,N
901,0.002095178097167731,N
902,0.003546556717374929,N
903,0.004828328074854401,N
904,0.005836676233380306,N
905,0.00648565980838648,N
906,0.006715242736481616,N
907,0.006497217147286475,N
908,0.005838383220370323,N
909,0.004780611057603597,N
910,0.003397718424957196,N
911,0.0017894257360056268,N
912,7.29609197648384e-05,N
913,-0.0016268579132600427,N
914,-0.00318807416042695,N
915,-0.004501553047398993,N
916,-0.005479512302480506,N
917,-0.006061877169578935,N
918,-0.0062199767389221556,N
919,-0.005957396003080534,N
920,-0.005308095118578723,N
921,-0.004332169891399781,N
922,-0.0031098250426269975,N
923,-0.0017342441543400672,N
924,-0.000304060746385102,N
925,0.0010839291495964311,N
926,0.0023412997719273925,N
927,0.0033934174921294263,N
928,0.004183546353941504,N
929,0.004675551309438359,N
930,0.004855192318810248,N
931,0.004730047287185738,N
932,0.004328126809377334,N
933,0.0036952660477360265,N
934,0.0028914141865836337,N
935,0.001985998763660621,N
936,0.0010526189490209443,N
937,0.00016340562681562532,N
938,-0.0006165421450988039,N
939,-0.0012341938998721984,N
940,-0.0016526515951633828,N
941,-0.0018538506503755325,N
942,-0.001839614868232032,N
943,-0.0016309285365225872,N
944,-0.0012654596382313094,N
945,-0.0007935435729694298,N
946,-0.0002729970888931342,N
947,0.00023674099284537445,N
948,0.0006805663705422568,N
949,0.0010131649733039613,N
950,0.001203408998947406,N
951,0.0012372350482499764,N
952,0.0011187010312986032,N
953,0.0008691131248286751,N
954,0.0005243251759584835,N
955,0.00013051295838032196,N
956,-0.0002611094855675874,N
957,-0.0006000509726983387,N
958,-0.000842151281065068,N
959,-0.000954427670224034,N
960,-0.000918647282856855,N
961,-0.0007332727745232203,N
962,-0.0004136285873508468,N
963,9.6574977976028e-06,N
964,0.0004937017088050084,N
965,0.0009875316335147255,N
966,0.0014369255988991505,N
967,0.0017894456995798467,N
968,0.0019991972269204268,N
969,0.0020308961195860988,N
970,0.0018629097114947393,N
971,0.001489046668310216,N
972,0.0009189956616872496,N
973,0.00017743387558772066,N
974,-0.0006980646800666923,N
975,-0.0016600989382975291,N
976,-0.002655192534497162,N
977,-0.0036278805382842865,N
978,-0.004524765530850613,N
979,-0.0052981976165810355,N
980,-0.005909288583018758,N
981,-0.0063300490629922485,N
982,-0.006544525355043605,N
983,-0.00654890107413326,N
984,-0.006350616058246263,N
985,-0.005966640656303395,N
986,-0.005421123026841606,N
987,-0.004742689767168386,N
988,-0.003961713544640252,N
989,-0.003107857041682748,N
990,-0.002208159335694788,N
991,-0.0012858528329542948,N
992,-0.0003599923523438468,N
993,0.0005541456038253253,N
994,0.0014440551546276604,N
995,0.0022986377946385517,N
996,0.00310678137492482,N
997,0.003856173580969811,N
998,0.004532592205966043,N
999,0.0051198297030360515,N
1000,0.005600300484141652,N
1001,0.005956261354106433,N
1002,0.006171470503050289,N
1003,0.006233041695006056,A
1004,0.006133230651146385,N
1005,0.005870917270341464,N
1006,0.0054526049124657625,N
1007,0.004892827196818638,N
1008,0.004213918170852228,N
1009,0.0034451556021761814,N
1010,0.002621330078963112,N
1011,0.0017808302315943374,N
1012,0.0009633711406617008,N
1013,0.0002075267915096834,N
1014,-0.0004517493950208587,N
1015,-0.0009854262709198549,N
1016,-0.001372341918930951,N
1017,-0.0016006455288027968,N
1018,-0.0016686191746416975,N
1019,-0.0015848044555139072,N
1020,-0.0013674012762475856,N
1021,-0.001042951151895752,N
1022,-0.0006443680788734649,N
1023,-0.00020843663739365803,N
1024,0.00022704620770677627,N
1025,0.0006262617791296123,N
1026,0.0009582397608768983,N
1027,0.001199349417248443,N
1028,0.0013351753032064837,N
1029,0.001361587546219287,N
1030,0.0012848836113963486,N
1031,0.0011209605043835586,N
1032,0.0008935694010785923,N
1033,0.0006318009054805889,N
1034,0.00036703494512427195,N
1035,0.00012965032217847848,N
1036,-5.41831398957146e-05,N
1037,-0.00016531308724329502,N
1038,-0.0001937349241704388,N
1039,-0.00013983115732993333,N
1040,-1.4594786926670522e-05,N
1041,0.00016118913918224245,N
1042,0.0003587306706006031,N
1043,0.0005438286337691146,N
1044,0.0006800371480191937,N
1045,0.0007321231012138271,N
1046,0.0006695118310606049,N
1047,0.00046942463583978514,N
1048,0.00011944109712400353,N
1049,-0.0003807333626379014,N
1050,-0.0010184518271606235,N
1051,-0.001768345599899117,N
1052,-0.0025935851607742835,N
1053,-0.0034481155163327976,N
1054,-0.004279735860493209,N
1055,-0.005033837590101771,N
1056,-0.005657561059603339,N
1057,-0.0061040782239903685,N
1058,-0.006336660771631874,N
1059,-0.006332163791715868,N
1060,-0.006083558939744717,N
1061,-0.005601200162485394,N
1062,-0.004912602135507661,N
1063,-0.004060650308601764,N
1064,-0.003100327546850161,N
1065,-0.002094214433413701,N
1066,-0.0011071736492404092,N
1067,-0.00020074118850817578,N
1068,0.0005721986940356595,N
1069,0.0011718937745528177,N
1070,0.0015748876234279224,N
1071,0.0017755485327357267,N
1072,0.0017858407855730744,N
1073,0.00163342196497801,N
1074,0.0013583347396885729,N
1075,0.0010086982335764882,N
1076,0.0006358796565679592,N
1077,0.0002896426204166283,N
1078,1.3734575950559627e-05,N
1079,-0.00015769625360089823,N
1080,-0.00020256459159425093,N
1081,-0.00011202334695498667,N
1082,0.00010968732000601569,N
1083,0.0004466252039688211,N
1084,0.0008735604635444975,N
1085,0.0013591295452263952,N
1086,0.0018693872699222065,N
1087,0.0023713931339137745,N
1088,0.002836469803149896,N
1089,0.003242801074169378,N
1090,0.0035771000487675626,N
1091,0.003835175946770337,N
1092,0.00402134982595005,N
1093,0.004146800811495662,N
1094,0.004227049892583978,N
1095,0.004278892787470099,N
1096,0.004317164716137459,N
1097,0.00435175172761972,N
1098,0.0043852524220412475,N
1099,0.004411636734333734,N
1100,0.004416142188543149,N
1101,0.004376497840977586,N
1102,0.004265388979980846,N
1103,0.004053898150106473,N
1104,0.003715511336806927,N
1105,0.00323019023969042,N
1106,0.0025879974814574484,N
1107,0.0017918174700494738,N
1108,0.0008588232432943981,N
1109,-0.00017952220762087575,N
1110,-0.0012789886245157826,N
1111,-0.0023855261821054117,N
1112,-0.003439387706404912,N
1113,-0.00438004338376953,N
1114,-0.005151410648548097,N
1115,-0.005706877102149698,N
1116,-0.006013606408375884,N
1117,-0.006055682205431298,N
1118,-0.005835753352655613,N
1119,-0.005374986747321972,N
1120,-0.004711304144871637,N
1121,-0.003896063127362612,N
1122,-0.0029895152948600933,N
1123,-0.0020555083223070397,N
1124,-0.0011559717368859412,N
1125,-0.00034573349265269135,N
1126,0.0003318368537453048,N
1127,0.0008479602971564005,N
1128,0.0011900907151800083,N
1129,0.0013619580765031497,N
1130,0.001382066143544181,N
1131,0.0012808507578185512,N
1132,0.0010968314239430041,N
1133,0.0008721774139571208,N
1134,0.0006481513847958937,N
1135,0.0004608860925399348,N
1136,0.0003378973750859234,N
1137,0.00029564685294628423,N
1138,0.0003383501653580304,N
1139,0.0004580931195698358,N
1140,0.0006361841274373346,N
1141,0.0008455533723347577,N
1142,0.001053921376476003,N
1143,0.0012274088657704444,N
1144,0.0013342445712942361,N
1145,0.0013482415773253152,N
1146,0.0012517482150919744,N
1147,0.0010378280680091276,N
1148,0.0007114789671632637,N
1149,0.00028976168650536523,N
1150,-0.00019922055239743894,N
1151,-0.0007184657203153443,N
1152,-0.0012252140846961965,N
1153,-0.0016748555018494503,N
1154,-0.0020252771425978617,N
1155,-0.002241260637572275,N
1156,-0.0022985110715032287,N
1157,-0.002186911063362856,N
1158,-0.0019126368093202095,N
1159,-0.0014988489588974461,N
1160,-0.0009847811665297133,N
1161,-0.0004231899500353851,N
1162,0.00012370972059401415,N
1163,0.0005895341408861343,N
1164,0.0009098078202714528,N
1165,0.0010282755223363015,N
1166,0.0009028339460980218,N
1167,0.0005104648769755905,N
1168,-0.0001493839650400512,N
1169,-0.0010533905657623443,N
1170,-0.0021551497191282217,N
1171,-0.003388161404069923,N
1172,-0.004670780350623878,N
1173,-0.0059126828987831415,N
1174,-0.007022251178804856,N
1175,-0.007914187489326605,N
1176,-0.008516660119340757,N
1177,-0.008777341481198936,N
1178,-0.00866781661898947,N
1179,-0.008185995044183417,N
1180,-0.007356330204580389,N
1181,-0.006227822044346751,N
1182,-0.004869940537065364,N
1183,-0.003366758815953868,N
1184,-0.0018097206392439344,N
1185,-0.0002895836584096098,N
1186,0.001111828156148049,N
1187,0.002329369805732858,N
1188,0.003321109065805947,N
1189,0.004072981940810607,N
1190,0.004601015430785965,N
1191,0.00495074736236002,N
1192,0.005193715901712932,N
1193,0.005421167836830491,N
1194,0.005735413415569314,N
1195,0.006239505717952565,N
1196,0.0070261179985339475,N
1197,0.008166611641657573,N
1198,0.00970131377313115,N
1199,0.011631948999391116,N
1200,0.013916998330802148,N
1201,0.016470506753263833,N
1202,0.019164556017499466,N
1203,0.021835296464205838,N
1204,0.024292131878976,N
1205,0.026329411291183588,N
1206,0.027739822735746593,N
1207,0.028328608057241928,A
1208,0.027927711074792843,N
1209,0.026409011795003236,N
1210,0.02369586499265198,N
1211,0.019772238883924806,N
1212,0.014688836364713768,N
1213,0.008565681791804964,N
1214,0.0015907772480543468,N
1215,-0.005985417693600385,N
1216,-0.013859739379858767,N
1217,-0.02169012826232274,N
1218,-0.029113035629828747,N
1219,-0.03576366623947122,N
1220,-0.04129798272611385,N
1221,-0.045415111697626936,N
1222,-0.04787856726530745,N
1223,-0.048534587048205104,N
1224,-0.047325901756975916,N
1225,-0.04429946678355566,N
1226,-0.03960708336388465,N
1227,-0.03349840227933596,N
1228,-0.02630647171622181,N
1229,-0.018426676948074174,N
1230,-0.01029054029265232,N
1231,-0.002336347703413103,N
1232,0.005021087877282334,N
1233,0.0114190497588554,N
1234,0.01657149210849712,N
1235,0.02028741067533958,N
1236,0.022481378147061137,N
1237,0.02317534155195149,N
1238,0.022491632752939982,N
1239,0.020638014732754582,N
1240,0.01788636213616995,N
1241,0.01454715503528055,N
1242,0.010942286255329451,N
1243,0.007378725899739891,N
1244,0.004125370805718023,N
1245,0.0013949734174330034,N
1246,-0.0006675519825401448,N
1247,-0.001989844828031415,N
1248,-0.002569961018367953,N
1249,-0.002468186897098457,N
1250,-0.001794165018300489,N
1251,-0.0006910631152422195,N
1252,0.0006813400041610655,N
1253,0.0021628725280668113,N
1254,0.003607009230652872,N
1255,0.004891679428756193,N
1256,0.00592627042635211,N
1257,0.00665471302777747,N
1258,0.007054925958861216,N
1259,0.007135194125767941,N
1260,0.006928256700862318,N
1261,0.006483989107402633,N
1262,0.005861585194294619,N
1263,0.0051220900417239725,N
1264,0.004322008881699831,N
1265,0.0035085359900514303,N
1266,0.002716726137945344,N
1267,0.0019686901434268793,N
1268,0.0012746560226566594,N
1269,0.0006355207309527116,N
1270,4.635005529691628e-05,N
1271,-0.0004998081050962826,N
1272,-0.0010084303230693979,N
1273,-0.001480880169791375,N
1274,-0.001912988841589067,N
1275,-0.00229499883787555,N
1276,-0.0026127925006695176,N
1277,-0.0028501318359229143,N
1278,-0.0029914942420929146,N
1279,-0.003025016190222083,N
1280,-0.0029450588542813553,N
1281,-0.002753982641778851,N
1282,-0.002462849469693761,N
1283,-0.002090940904349948,N
1284,-0.0016641575706621925,N
1285,-0.0012125210595063261,N
1286,-0.0007671131517820095,N
1287,-0.0003568485826423783,N
1288,-5.4847106364588464e-06,N
1289,0.0002707705795779343,N
1290,0.0004647705925679104,N
1291,0.0005788823034666318,N
1292,0.0006243201146176808,N
1293,0.0006194299415741323,N
1294,0.0005871171609654825,N
1295,0.0005517142641785611,N
1296,0.0005356497301158758,N
1297,0.0005563023607120409,N
1298,0.0006234054189387855,N
1299,0.0007373066210975184,N
1300,0.0008883006655617871,N
1301,0.0010571405917104947,N
1302,0.0012167141348221936,N
1303,0.0013347518709227516,N
1304,0.0013773246197349856,N
1305,0.0013127970228709895,N
1306,0.0011158408762307285,N
1307,0.0007710834614221821,N
1308,0.00027597837061503846,N
1309,-0.0003574597087445792,N
1310,-0.0011023223038933124,N
1311,-0.0019180163136865496,N
1312,-0.0027530001511314145,N
1313,-0.0035488603198803297,N
1314,-0.0042453741547912715,N
1315,-0.004786067114982431,N
1316,-0.0051236884504987715,N
1317,-0.005225010296170976,N
1318,-0.00507440621567372,N
1319,-0.004675782457453045,N
1320,-0.004052608018228642,N
1321,-0.003245999423392236,N
1322,-0.002311036647772118,N
1323,-0.001311687193875088,N
1324,-0.0003148681411750884,N
1325,0.0006157366760670984,N
1326,0.0014254697950602186,N
1327,0.002073515408702745,N
1328,0.0025362483453262147,N
1329,0.0028087722209712497,N
1330,0.0029044833613223464,N
1331,0.002852703917233521,N
1332,0.002694639326247832,N
1333,0.002478104967885939,N
1334,0.0022516086854605165,N
1335,0.0020584500631897562,N
1336,0.0019314934366184296,N
1337,0.0018891908017445841,N
1338,0.0019332861901891936,N
1339,0.002048446142853688,N
1340,0.002203854890550246,N
1341,0.0023566071825610337,N
1342,0.002456542690437377,N
1343,0.0024520119278552003,N
1344,0.002295965497835373,N
1345,0.001951731173146339,N
1346,0.0013978873043500055,N
1347,0.0006317427528407334,N
1348,-0.0003289260465762348,N
1349,-0.0014460671031858883,N
1350,-0.0026634850667012736,N
1351,-0.003910747547627076,N
1352,-0.005108533577731608,N
1353,-0.006174953971162847,N
1354,-0.007032278594073341,N
1355,-0.0076134656697945755,N
1356,-0.007867907690396704,N
1357,-0.007765884048077437,N
1358,-0.007301332434602407,N
1359,-0.006492705556996269,N
1360,-0.005381851343463342,N
1361,-0.004031027840618913,N
1362,-0.0025183217642710523,N
1363,-0.0009318650896529748,N
1364,0.0006366753345492379,N
1365,0.0020988265392650313,N
1366,0.003375752987669262,N
1367,0.004403942916098167,N
1368,0.005139716044501105,N
1369,0.0055622018130903235,N
1370,0.005674533267933432,N
1371,0.005503125351661333,N
1372,0.005095052619709595,N
1373,0.004513699340789595,N
1374,0.0038330106181061713,N
1375,0.003130811008524229,N
1376,0.0024817610029853106,N
1377,0.0019505772405251439,N
1378,0.0015861393225057314,N
1379,0.0014170411804854443,N
1380,0.0014490230220232981,N
1381,0.0016645528295114132,N
1382,0.002024629791086714,N
1383,0.0024726736180935714,N
1384,0.002940163872332052,N
1385,0.003353523132864813,N
1386,0.0036416124521368243,N
1387,0.0037431344019616427,N
1388,0.0036132236641914866,N
1389,0.0032285572595417956,N
1390,0.0025904437111380005,N
1391,0.0017255464793333043,N
1392,0.0006841394853272366,N
1393,-0.0004639502376296421,N
1394,-0.0016353198395079075,N
1395,-0.0027403067010143365,N
1396,-0.0036909427879878286,N
1397,-0.004408802406355508,N
1398,-0.0048320251246124725,N
1399,-0.004920884848965728,N
1400,-0.004661415301976604,N
1401,-0.004066776897758191,N
1402,-0.0031762467771687024,N
1403,-0.002051919939936744,N
1404,-0.0007734104753206448,N
1405,0.0005689781027479485,N
1406,0.0018819999163865058,N
1407,0.0030774211352926815,N
1408,0.0040794351976499044,N
1409,0.004830826919690053,N
1410,0.005297285059233738,N
1411,0.005469446465961481,N
1412,0.005362491992449981,N
1413,0.005013374202117204,N
1414,0.004476004947386285,N
1415,0.0038149376879762355,N
1416,0.0030982249467659947,N
1417,0.002390204305122536,N
1418,0.00174496238694902,N
1419,0.0012011460066211244,N
1420,0.0007786387438548879,N
1421,0.0004774130385318135,N
1422,0.00027862585819094974,N
1423,0.00014778094325044926,N
1424,3.956301966186023e-05,N
1425,-9.621864573164064e-05,N
1426,-0.0003082456788206158,N
1427,-0.0006375691357655834,N
1428,-0.001112416496899098,N
1429,-0.0017444805645456323,N
1430,-0.00252706965713527,N
1431,-0.0034352832199090293,N
1432,-0.004428148164897437,N
1433,-0.0054524377000529575,N
1434,-0.00644772082714425,N
1435,-0.007352075141334345,N
1436,-0.008107847794114328,N
1437,-0.008666869516374652,N
1438,-0.008994606888630255,N
1439,-0.009072868327508896,N
1440,-0.008900847865327861,N
1441,-0.008494481407867736,N
1442,-0.00788427961756779,N
1443,-0.007111962586374847,N
1444,-0.006226329735085166,N
1445,-0.005278840695161787,N
1446,-0.004319361096225391,N
1447,-0.0033924555875733398,N
1448,-0.002534509245132527,N
1449,-0.0017718470933715312,N
1450,-0.0011199148313470132,N
1451,-0.0005834906607940265,N
1452,-0.000157820171568141,N
1453,0.0001694975121866992,N
1454,0.000416092968599598,N
1455,0.00060213169579656,N
1456,0.0007476081166157937,N
1457,0.0008698915095113694,N
1458,0.0009817644705390133,N
1459,0.0010901512202603333,N
1460,0.0011956682586568787,N
1461,0.0012930465872880263,N
1462,0.0013723805976231405,N
1463,0.0014210647838823422,N
1464,0.0014261983655062785,N
1465,0.0013771806582712357,N
1466,0.001268191689134957,N
1467,0.0011002528602686657,N
1468,0.0008825908383174795,N
1469,0.0006330852061649324,N
1470,0.000377666145908397,N
1471,0.00014863788461876327,N
1472,-1.7971749071844772e-05,N
1473,-8.580783717312347e-05,N
1474,-2.1987832459893775e-05,N
1475,0.00019912750115292025,N
1476,0.0005926716265206165,N
1477,0.0011609941619083741,N
1478,0.0018927740875468789,N
1479,0.002763791422333773,N
1480,0.0037394239994997147,N
1481,0.004778701230843895,N
1482,0.005839513289423693,N
1483,0.006884376592045533,N
1484,0.00788602387113728,N
1485,0.008832040272919778,N
1486,0.009727814748678688,N
1487,0.010597214881132966,N
1488,0.011480611059163214,N
1489,0.012430154965423918,N
1490,0.01350253321768202,N
1491,0.01474973784475187,N
1492,0.016208685993764245,N
1493,0.01789074932719768,N
1494,0.0197723922028627,N
1495,0.021788146263464443,N
1496,0.02382705380825802,N
1497,0.025733489971767817,N
1498,0.027312933683981057,N
1499,0.02834282039318421,N
1500,0.028588105861334038,A
1501,0.027820639347685427,N
1502,0.025840934107097355,N
1503,0.022500488754826756,N
1504,0.01772251562438274,N
1505,0.011518831816335375,N
1506,0.004000810965605719,N
1507,-0.004617304890404063,N
1508,-0.01402379539474399,N
1509,-0.0238237990964641,N
1510,-0.03356193497066218,N
1511,-0.04275164810477221,N
1512,-0.050908937759940744,N
1513,-0.057587559460044783,N
1514,-0.06241252396283119,N
1515,-0.06510879267666386,N
1516,-0.06552249019213503,N
1517,-0.06363267082926571,N
1518,-0.059552601110533024,N
1519,-0.053520543682704626,N
1520,-0.04588103117195766,N
1521,-0.03705848853671986,N
1522,-0.027525708542770786,N
1523,-0.01777004745732941,N
1524,-0.008260264912929482,N
1525,0.0005833011682325642,N
1526,0.008413007831783169,N
1527,0.014971054770399362,N
1528,0.020098664292569866,N
1529,0.02373719684118605,N
1530,0.025921798962290285,N
1531,0.026768765627648076,N
1532,0.02645822911422861,N
1533,0.025214031966014485,N
1534,0.023282692847493965,N
1535,0.02091324658314067,N
1536,0.018339468760830525,N
1537,0.015765625950814228,N
1538,0.01335646995294869,N
1539,0.01123175927647439,N
1540,0.009465178879012876,N
1541,0.008087170779331212,N
1542,0.007090908545308087,N
1543,0.006440465663072626,N
1544,0.006080150381654066,N
1545,0.005944004956127031,N
1546,0.0059645795223240445,N
1547,0.0060802669102457615,N
1548,0.006240701256874797,N
1549,0.006409958765149905,N
1550,0.00656753221273901,N
1551,0.006707261947349228,N
1552,0.006834578605851122,N
1553,0.0069625355236266505,N
1554,0.0071071780758783796,N
1555,0.007282816061794069,N
1556,0.007497738910058115,N
1557,0.007750845984464408,N
1558,0.008029559640961777,N
1559,0.008309253737888102,N
1560,0.008554275796479209,N
1561,0.00872048065452171,N
1562,0.008759041055629807,N
1563,0.008621168243289453,N
1564,0.008263274798168562,N
1565,0.007652053672634685,N
1566,0.006768938660079667,N
1567,0.005613454000160385,N
1568,0.004205053056610247,N
1569,0.0025831836306182956,N
1570,0.0008054900326998711,N
1571,-0.0010557474617146352,N
1572,-0.0029186477301386855,N
1573,-0.004697789209755721,N
1574,-0.0063107329915189905,N
1575,-0.007684394597864486,N
1576,-0.008760663871194185,N
1577,-0.009500746302244132,N
1578,-0.009887826797122625,N
1579,-0.009927828509384392,N
1580,-0.009648237416335852,N
1581,-0.009095161722288516,N
1582,-0.008328965505511208,N
1583,-0.007418935892105924,N
1584,-0.006437501460880595,N
1585,-0.0054545185699049195,N
1586,-0.004532094259231455,N
1587,-0.0037203358473829233,N
1588,-0.0030543221412899207,N
1589,-0.002552486404424576,N
1590,-0.0022164882160683767,N
1591,-0.0020325316002527175,N
1592,-0.001973967316601517,N
1593,-0.0020049103411728317,N
1594,-0.0020845221365225573,N
1595,-0.0021715590522610995,N
1596,-0.002228773807702216,N
1597,-0.002226773080185422,N
1598,-0.0021469777004444403,N
1599,-0.001983402403066074,N
1600,-0.0017430708820634327,N
1601,-0.00144500849454569,N
1602,-0.0011179018366252343,N
1603,-0.000796665300130837,N
1604,-0.0005182876562495367,N
1605,-0.00031742418812037953,N
1606,-0.0002222339883391512,N
1607,-0.00025093035746592666,N
1608,-0.00040942174412138965,N
1609,-0.0006902891461197995,N
1610,-0.0010731934556081596,N
1611,-0.0015266499854348374,N
1612,-0.0020109616819566807,N
1613,-0.002481981051097044,N
1614,-0.002895287879754338,N
1615,-0.0032103377829992776,N
1616,-0.0033941597931931985,N
1617,-0.0034242519900136597,N
1618,-0.0032904265660670005,N
1619,-0.0029954737908192974,N
1620,-0.0025546363055242646,N
1621,-0.0019939995958517163,N
1622,-0.0013479971187101943,N
1623,-0.000656288375051863,N
1624,3.970529707877388e-05,N
1625,0.0007003210045134099,N
1626,0.0012909574079298766,N
1627,0.0017849059668008018,N
1628,0.0021654772254973208,N
1629,0.002427221214560824,N
1630,0.0025760969937051723,N
1631,0.002628532624362635,N
1632,0.0026094259165482807,N
1633,0.0025492516756161826,N
1634,0.002480546628942898,N
1635,0.002434126047487067,N
1636,0.0024354353821282675,N
1637,0.0025014460724314433,N
1638,0.0026384611627016286,N
1639,0.0028411058493294605,N
1640,0.0030926514679874666,N
1641,0.00336667370666667,N
1642,0.0036298922902458235,N
1643,0.0038458959634689945,N
1644,0.003979341652538303,N
1645,0.004000149627730048,N
1646,0.00388721194206565,N
1647,0.0036311918247339424,N
1648,0.003236104935423674,N
1649,0.0027195179927498973,N
1650,0.002111353322925845,N
1651,0.0014514304617299681,N
1652,0.0007859954185002617,N
1653,0.00016357662909249042,N
1654,-0.000369440770329135,N
1655,-0.0007731142509342558,N
1656,-0.0010177247607622878,N
1657,-0.001086692443391607,N
1658,-0.0009783533024587488,N
1659,-0.000706419643497233,N
1660,-0.000299060806154027,N
1661,0.0002033372097304137,N
1662,0.0007515538534935821,N
1663,0.001291770845863856,N
1664,0.0017702942759063533,N
1665,0.002138344326903182,N
1666,0.00235648496934867,N
1667,0.0023982935644543692,N
1668,0.0022529311591272406,N
1669,0.0019263608783162522,N
1670,0.001441067107283309,N
1671,0.0008342494474575386,N
1672,0.00015460193295485598,N
1673,-0.0005420683780374104,N
1674,-0.001197997735479838,N
1675,-0.001758913902948653,N
1676,-0.0021792450800972225,N
1677,-0.0024265658843237374,N
1678,-0.002484821218391435,N
1679,-0.0023559861573810912,N
1680,-0.0020599771826614577,N
1681,-0.0016328072623982299,N
1682,-0.001123154076951185,N
1683,-0.000587670356303829,N
1684,-8.549333695269185e-05,N
1685,0.0003275067099431234,N
1686,0.0006041707163542063,N
1687,0.0007106493435012875,N
1688,0.000629701819484888,N
1689,0.00036237157533491887,N
1690,-7.212200017251313e-05,N
1691,-0.0006382567696862118,N
1692,-0.001287647507074258,N
1693,-0.001963693427046458,N
1694,-0.002606955429267786,N
1695,-0.0031607221544050503,N
1696,-0.003576223346581928,N
1697,-0.003817003409032751,N
1698,-0.003862063821426627,N
1699,-0.0037075088920419056,N
1700,-0.0033665775700826833,N
1701,-0.002868104259690811,N
1702,-0.0022536058345043112,N
1703,-0.0015733191653948288,N
1704,-0.0008815970539093499,N
1705,-0.00023210422581098266,N
1706,0.0003267567388470309,N
1707,0.0007558065989431379,N
1708,0.0010281267558014339,N
1709,0.001130951630749783,N
1710,0.0010662982091115888,N
1711,0.0008503250745439597,N
1712,0.0005115207328312468,N
1713,8.791395605307675e-05,N
1714,-0.0003764306486987524,N
1715,-0.0008353219968288343,N
1716,-0.00124442217979988,N
1717,-0.0015649582796866698,N
1718,-0.0017668485018904696,N
1719,-0.001830972137648476,N
1720,-0.0017503876235133386,N
1721,-0.0015304011279672625,N
1722,-0.0011875015907030122,N
1723,-0.0007472949852066728,N
1724,-0.00024167620282691433,N
1725,0.00029444288776381045,N
1726,0.0008264874518510937,N
1727,0.001323295260163613,N
1728,0.0017596011024808035,N
1729,0.0021177057220397423,N
1730,0.002388218676055747,N
1731,0.00256988325450514,N
1732,0.0026685966853879322,N
1733,0.0026958163458984676,N
1734,0.002666584356528455,N
1735,0.002597408790626285,N
1736,0.0025042183083795635,N
1737,0.0024005710019225457,N
1738,0.002296258483271782,N
1739,0.0021964074479836025,N
1740,0.002101141694297317,N
1741,0.0020058250400295605,N
1742,0.001901859977239255,N
1743,0.0017779714987916637,N
1744,0.0016218635616677742,N
1745,0.0014220984446279333,N
1746,0.0011700172791462614,N
1747,0.0008614957483100844,N
1748,0.0004983190900091052,N
1749,8.897478700056843e-05,N
1750,-0.0003512930569113866,N
1751,-0.0008012468984232775,N
1752,-0.001235216298840503,N
1753,-0.0016253278530978243,N
1754,-0.0019441781899887814,N
1755,-0.0021676530868246645,N
1756,-0.0022775665522807003,N
1757,-0.0022638104961112656,N
1758,-0.0021257628838432636,N
1759,-0.0018727888933230499,N
1760,-0.001523773292761192,N
1761,-0.0011057301353745628,N
1762,-0.000651632632704802,N
1763,-0.0001976765720861385,N
1764,0.00021977287278203758,N
1765,0.000567294738304545,N
1766,0.0008173424744151643,N
1767,0.000950766634394058,N
1768,0.0009587258029629659,N
1769,0.0008438016217093908,N
1770,0.0006201626828900126,N
1771,0.000312673084118757,N
1772,-4.5075887598543124e-05,N
1773,-0.000413720109326493,N
1774,-0.0007518456069111166,N
1775,-0.001020145048437989,N
1776,-0.0011855852472116288,N
1777,-0.0012251220860502944,N
1778,-0.0011285155911496092,N
1779,-0.0008998755130712859,N
1780,-0.0005576988932463219,N
1781,-0.0001333275066955465,N
1782,0.000332066950182339,N
1783,0.0007916885959038586,N
1784,0.001198083407814802,N
1785,0.0015083267573565609,N
1786,0.001688842898229443,N
1787,0.0017192852985436317,N
1788,0.001594996359567472,N
1789,0.0013277183704543682,N
1790,0.0009444299696339427,N
1791,0.00048441265522669407,N
1792,-5.119664653032214e-06,N
1793,-0.000474305057975688,N
1794,-0.0008761921695593208,N
1795,-0.0011719104349745915,N
1796,-0.0013348585523777305,N
1797,-0.0013534588405299806,N
1798,-0.0012322096788645242,N
1799,-0.000990969511837427,N
1800,-0.0006626010045474042,N
1801,-0.0002892735590571656,N
1802,8.214877151183599e-05,N
1803,0.00040512893295656095,N
1804,0.0006383597633303468,N
1805,0.0007500501938369147,N
1806,0.0007211768652936075,N
1807,0.0005474046954627674,N
1808,0.00023952720536743694,N
1809,-0.00017756991053092389,N
1810,-0.0006672778184395715,N
1811,-0.0011847030271338274,N
1812,-0.0016808204149939112,N
1813,-0.0021069291338746262,N
1814,-0.0024189873230004676,N
1815,-0.0025814372096493836,N
1816,-0.0025702081847494233,N
1817,-0.0023746852658292662,N
1818,-0.001998536133247623,N
1819,-0.0014593885745397986,N
1820,-0.0007874353113507917,N
1821,-2.311292510184672e-05,N
1822,0.0007859456113203152,N
1823,0.001588451442905907,N
1824,0.0023332434738245495,N
1825,0.002973059195516954,N
1826,0.0034680356314869386,N
1827,0.003788689240061455,N
1828,0.0039181439065624594,A
1829,0.0038534154981707622,N
1830,0.003605619593354244,N
1831,0.003199044444503113,N
1832,0.0026691217563393752,N
1833,0.0020594269055939,N
1834,0.0014179368271004865,N
1835,0.0007928566909639541,N
1836,0.00022838627257332154,N
1837,-0.00023917538457529134,N
1838,-0.0005846016603765941,N
1839,-0.0007958601587781765,N
1840,-0.0008749594957404712,N
1841,-0.0008374263055483475,N
1842,-0.0007104593263869792,N
1843,-0.0005299412299473536,N
1844,-0.0003365989514050215,N
1845,-0.00017168099274953255,N
1846,-7.256390134190007e-05,N
1847,-6.871093379951351e-05,N
1848,-0.0001783837082984101,N
1849,-0.0004064509635515179,N
1850,-0.0007435468279302038,N
1851,-0.001166706982398442,N
1852,-0.001641462721961604,N
1853,-0.002125215112213916,N
1854,-0.0025715654332898966,N
1855,-0.002935165760511148,N
1856,-0.003176589778505412,N
1857,-0.0032667136704903122,N
1858,-0.003190137956483583,N
1859,-0.002947268848280945,N
1860,-0.0025548062905214543,N
1861,-0.0020445456391899935,N
1862,-0.0014605751040019314,N
1863,-0.000855121808347989,N
1864,-0.0002834457521006419,N
1865,0.00020171335660380186,N
1866,0.0005555773398374877,N
1867,0.000746101356696325,N
1868,0.0007575738576594012,N
1869,0.0005926452184915675,N
1870,0.00027252986905874996,N
1871,-0.00016469558600099287,N
1872,-0.000667577450974892,N
1873,-0.0011762338306319478,N
1874,-0.0016282751950841379,N
1875,-0.001965083207841952,N
1876,-0.0021377827849615215,N
1877,-0.0021122677849020497,N
1878,-0.001872740485395741,N
1879,-0.001423387934813386,N
1880,-0.000788025268354659,N
1881,-7.761404822542617e-06,N
1882,0.0008630421674533544,N
1883,0.0017620699267038606,N
1884,0.0026250367970248123,N
1885,0.00339173392593226,N
1886,0.004011526799825907,N
1887,0.004447773000010147,N
1888,0.0046807513683832895,N
1889,0.004708853994288036,N
1890,0.004547973189909781,N
1891,0.004229200858077201,N
1892,0.0037951287520842053,N
1893,0.0032951760375537556,N
1894,0.002780457446019548,N
1895,0.0022987287045565952,N
1896,0.0018899048445933247,N
1897,0.0015825538834337801,N
1898,0.0013916436992644772,N
1899,0.0013176835784519422,N
1900,0.0013472678845415282,N
1901,0.0014549056527274537,N
1902,0.0016059125106889693,N
1903,0.0017600577852944057,N
1904,0.0018756089712188447,N
1905,0.0019134028563223225,N
1906,0.0018405940228311492,N
1907,0.0016337771344349546,N
1908,0.0012812392972146602,N
1909,0.0007841682490425679,N
1910,0.00015672195684952728,N
1911,-0.0005750438997106023,N
1912,-0.0013752964389665224,N
1913,-0.0022014051813273555,N
1914,-0.003007511700622299,N
1915,-0.0037483653291786705,N
1916,-0.0043830774238228344,N
1917,-0.0048784549725403034,N
1918,-0.0052116113274113425,N
1919,-0.005371615405554147,N
1920,-0.005360028587394384,N
1921,-0.005190283829957392,N
1922,-0.004885972271481243,N
1923,-0.004478206540761474,N
1924,-0.004002317777422352,N
1925,-0.003494208960950322,N
1926,-0.0029867269853698338,N
1927,-0.0025064273456141335,N
1928,-0.0020710844385027453,N
1929,-0.001688242525237126,N
1930,-0.0013550061354137067,N
1931,-0.0010591410133208112,N
1932,-0.0007814116012550662,N
1933,-0.0004989346075353259,N
1934,-0.00018919547617609068,N
1935,0.00016573045972962332,N
1936,0.0005752743044567439,N
1937,0.0010373196965239647,N
1938,0.0015364763305747299,N
1939,0.0020440338627465866,N
1940,0.0025197603542731184,N
1941,0.002915476285818612,N
1942,0.0031800891765763955,N
1943,0.003265552775651323,N
1944,0.0031330550282789985,N
1945,0.002758667578500005,N
1946,0.002137720092896346,N
1947,0.0012872948645822994,N
1948,0.0002464569316964942,N
1949,-0.0009258850583018594,N
1950,-0.0021552906122205887,N
1951,-0.0033577967725900095,N
1952,-0.004446935836431486,N
1953,-0.005340953400620476,N
1954,-0.005969413720535511,N
1955,-0.006278487911987405,N
1956,-0.006234420814174124,N
1957,-0.00582492731080272,N
1958,-0.005058539653025584,N
1959,-0.00396218126420982,N
1960,-0.002577451550472274,N
1961,-0.0009562441082052564,N
1962,0.0008436330721156674,N
1963,0.0027622213575330488,N
1964,0.004740096263611528,N
1965,0.006719738952974251,N
1966,0.008645629714050983,N
1967,0.010463359986418709,N
1968,0.012118263816945857,N
1969,0.013554182430155983,N
1970,0.01471298148334252,N
1971,0.015535340661747379,N
1972,0.015963140744130147,N
1973,0.015943500060061018,N
1974,0.015434184288430677,N
1975,0.014409775355347555,N
1976,0.012867708195455432,N
1977,0.010833148445981166,N
1978,0.00836174190923807,N
1979,0.005539516118768673,N
1980,0.0024796037838242736,N
1981,-0.0006840913062184834,N
1982,-0.003805735495929343,N
1983,-0.006738023863685398,N
1984,-0.009343162885143702,N
1985,-0.011503232499609911,N
1986,-0.013128876066430227,N
1987,-0.014165480141542473,N
1988,-0.014596305336164428,N
1989,-0.014442374719524363,N
1990,-0.013759275730164796,N
1991,-0.012631345060499378,N
1992,-0.011163946767919262,N
1993,-0.009474693221223268,N
1994,-0.0076844820324051,N
1995,-0.005909135383957185,N
1996,-0.004252258042247519,N
1997,-0.0027997185704989277,N
1998,-0.0016159472990031933,N
1999,-0.0007420645406815282,N
2000,-0.00019571603885350044,N
2001,2.760230927570093e-05,N
2002,-4.798897924545861e-05,N
2003,-0.00038217677596024866,N
2004,-0.0009224369585266052,N
2005,-0.0016082527577501613,N
2006,-0.0023752859345525386,N
2007,-0.003159274579941215,N
2008,-0.003899499280420512,N
2009,-0.00454172452915993,N
2010,-0.005040572436748127,N
2011,-0.005361314820886383,N
2012,-0.005481080783681342,N
2013,-0.0053894795969325225,N
2014,-0.005088641759593119,N
2015,-0.004592687296625818,N
2016,-0.0039266386588821724,N
2017,-0.0031248056776361608,N
2018,-0.0022286843372217487,N
2019,-0.0012844326192218403,N
2020,-0.00034001568218111275,N
2021,0.0005578537437764008,N
2022,0.001366820118496281,N
2023,0.0020518463358256585,N
2024,0.002587823065073449,N
2025,0.002961610910300927,N
2026,0.003173308493380341,N
2027,0.0032365659480888083,N
2028,0.0031778110593714682,N
2029,0.003034327345705081,N
2030,0.0028512202451566734,N
2031,0.0026774246264314426,N
2032,0.0025610320728711713,N
2033,0.002544330413258067,N
2034,0.002659029056936905,N
2035,0.002922175400244314,N
2036,0.003333242760937865,N
2037,0.0038727892687304903,N
2038,0.004502955448601784,N
2039,0.005169898189914889,N
2040,0.005808070395897783,N
2041,0.006346071749448712,N
2042,0.006713635107080236,N
2043,0.006849186004215408,N
2044,0.00670732609719453,N
2045,0.006265550619281221,N
2046,0.005529519680338039,N
2047,0.004536265949993505,N
2048,0.0033548379613173385,N
2049,0.0020840486638760464,N
2050,0.0008472183576966885,N
2051,-0.00021594254568303776,N
2052,-0.000959892871719218,N
2053,-0.0012455811229106666,N
2054,-0.0009536202216434825,N
2055,2.7529680810750974e-06,N
2056,0.001666081478745635,N
2057,0.00402558456135924,N
2058,0.007011553627375231,N
2059,0.010494032322313286,N
2060,0.014286253417365117,N
2061,0.01815292728334569,N
2062,0.02182306758948365,N
2063,0.025006641022706562,N
2064,0.027413978047046705,N
2065,0.02877661003330038,N
2066,0.028868022973393175,A
2067,0.027522750435296405,N
2068,0.024652274375678178,N
2069,0.020256363266488744,N
2070,0.014428748575677237,N
2071,0.007356412503180532,N
2072,-0.0006877862344736749,N
2073,-0.009358914701096073,N
2074,-0.0182594419008823,N
2075,-0.02696314653396182,N
2076,-0.03504180201370024,N
2077,-0.042092686354050855,N
2078,-0.047764813356862536,N
2079,-0.05178180511206991,N
2080,-0.05395954190492786,N
2081,-0.05421713218136612,N
2082,-0.05258031366251299,N
2083,-0.049177072869954354,N
2084,-0.04422598138474796,N
2085,-0.03801841080212095,N
2086,-0.030896324031807147,N
2087,-0.02322768338030257,N
2088,-0.015381629096693081,N
2089,-0.007705463023354244,N
2090,-0.00050514931635347,N
2091,0.005969428047404354,N
2092,0.011533761872170601,N
2093,0.01607243737683979,N
2094,0.01953762604509378,N
2095,0.02194310934018419,N
2096,0.02335485426436296,N
2097,0.02387930782725178,N
2098,0.023650605355486964,N
2099,0.022817812541667565,N
2100,0.021533162359504695,N
2101,0.01994202995989177,N
2102,0.018175139584086977,N
2103,0.01634324446196952,N
2104,0.014534285298409761,N
2105,0.0128128308941834,N
2106,0.011221446368030462,N
2107,0.009783526176587615,N
2108,0.008507071422690806,N
2109,0.00738888092680295,N
2110,0.006418659275376733,N
2111,0.005582618714717936,N
2112,0.004866260025550028,N
2113,0.0042561512398593794,N
2114,0.0037406692160684156,N
2115,0.0033098128664775053,N
2116,0.0029543226823287765,N
2117,0.0026644322245294506,N
2118,0.0024286165856097614,N
2119,0.0022326800014269526,N
2120,0.002059443405854501,N
2121,0.0018891711823370264,N
2122,0.0017007397819340927,N
2123,0.0014734223547649408,N
2124,0.0011890605206352706,N
2125,0.000834328014165736,N
2126,0.0004027664527054861,N
2127,-0.00010370845335202056,N
2128,-0.0006740745951635005,N
2129,-0.00128840033038168,N
2130,-0.001919016639325475,N
2131,-0.002532595930641535,N
2132,-0.0030929630240648888,N
2133,-0.0035643790466240973,N
2134,-0.0039149829711625185,N
2135,-0.004120050567374354,N
2136,-0.0041647353171720605,N
2137,-0.004045989933970697,N
2138,-0.003773432003271997,N
2139,-0.00336901238872719,N
2140,-0.0028654647023010553,N
2141,-0.0023036469552464604,N
2142,-0.0017290154695995532,N
2143,-0.0011875763026854302,N
2144,-0.0007217245425330866,N
2145,-0.00036639861009308915,N
2146,-0.0001459441115158081,N
2147,-7.200446835893826e-05,N
2148,-0.00014264373620105205,N
2149,-0.00034277527214551323,N
2150,-0.0006458341889202211,N
2151,-0.0010165064897324923,N
2152,-0.0014142254938280818,N
2153,-0.001797076283752985,N
2154,-0.0021257188614180805,N
2155,-0.0023669537069202756,N
2156,-0.002496605368331803,N
2157,-0.002501479593467019,N
2158,-0.0023802445489384413,N
2159,-0.0021431873082170616,N
2160,-0.0018108977422115972,N
2161,-0.0014120287616278169,N
2162,-0.0009803666355105588,N
2163,-0.0005515065500467514,N
2164,-0.00015945761232514957,N
2165,0.00016650280161183275,N
2166,0.00040443667117830227,N
2167,0.0005415778900382383,N
2168,0.0005752237594247994,N
2169,0.0005126112140054173,N
2170,0.00036981214390227266,N
2171,0.00016979448084307783,N
2172,-6.010710279079686e-05,N
2173,-0.00029100333537270673,N
2174,-0.0004952196718227335,N
2175,-0.0006487273200454618,N
2176,-0.0007330122870697944,N
2177,-0.000736257647352554,N
2178,-0.0006538196443932632,N
2179,-0.00048806827430927004,N
2180,-0.00024772159496368694,N
2181,5.317538677085136e-05,N
2182,0.00039648730701072565,N
2183,0.0007613328675548901,N
2184,0.0011254685673340286,N
2185,0.0014666745737754244,N
2186,0.0017641189326488723,N
2187,0.0019996692158124863,N
2188,0.0021590982251969335,N
2189,0.002233103129267755,N
2190,0.0022180388615893635,N
2191,0.002116268071063724,N
2192,0.0019360549873016649,N
2193,0.0016909738527727503,N
2194,0.0013988533864122455,N
2195,0.001080326533506636,N
2196,0.000757093315550976,N
2197,0.00045003303143695094,N
2198,0.00017732229299626125,N
2199,-4.727172233626433e-05,N
2200,-0.00021575065202975735,N
2201,-0.00032673774428718805,N
2202,-0.00038569715522016794,N
2203,-0.0004044429527676652,N
2204,-0.0003999243483776471,N
2205,-0.0003923463899108908,N
2206,-0.0004027647295632511,N
2207,-0.00045037441018877983,N
2208,-0.0005497860655162671,N
2209,-0.0007086333015872178,N
2210,-0.0009258654411455848,N
2211,-0.0011910372039821704,N
2212,-0.001484806713466928,N
2213,-0.0017807029638167446,N
2214,-0.002048044007138631,N
2215,-0.0022557067885802667,N
2216,-0.002376298926410123,N
2217,-0.002390186711140384,N
2218,-0.0022888094125769367,N
2219,-0.0020767665932458603,N
2220,-0.0017723016456867673,N
2221,-0.0014060078058069593,N
2222,-0.0010178252524812462,N
2223,-0.0006526411482571566,N
2224,-0.00035500662214238426,N
2225,-0.00016361162654219522,N
2226,-0.00010619365400111629,N
2227,-0.00019550236277934087,N
2228,-0.00042681615284566847,N
2229,-0.0007773314789849181,N
2230,-0.001207543974461458,N
2231,-0.0016645323753543874,N
2232,-0.002086859160350236,N
2233,-0.0024106321068100146,N
2234,-0.0025761440406185136,N
2235,-0.002534435013790147,N
2236,-0.0022531063435526698,N
2237,-0.001720760238173263,N
2238,-0.0009495437598600357,N
2239,2.4558270483737802e-05,N
2240,0.00114381874073679,N
2241,0.002333139680881703,N
2242,0.0035063356920824627,N
2243,0.004573745933319012,N
2244,0.005450435143673239,N
2245,0.006064171962168433,N
2246,0.006362390153730227,N
2247,0.006317438824774565,N
2248,0.00592959664838653,N
2249,0.005227542093130939,N
2250,0.004266214439833187,N
2251,0.0031222486068745643,N
2252,0.0018874006679105103,N
2253,0.0006605779355571025,N
2254,-0.0004607761719133107,N
2255,-0.0013891352038450653,N
2256,-0.0020544021850852174,N
2257,-0.0024098093386950795,N
2258,-0.0024356976599905333,N
2259,-0.002140871095182768,N
2260,-0.0015614410987634232,N
2261,-0.0007573014561750046,N
2262,0.00019341639510676804,N
2263,0.0012013809075526688,N
2264,0.0021739417063264452,N
2265,0.0030231485161557265,N
2266,0.0036732093588471956,N
2267,0.004066754456725129,N
2268,0.004169387201548407,A
2269,0.003972161531801837,N
2270,0.0034918135130366326,N
2271,0.0027687752329181685,N
2272,0.0018631911032107092,N
2273,0.0008493219684843546,N
2274,-0.00019115312872243983,N
2275,-0.001176351315915682,N
2276,-0.0020313018470991375,N
2277,-0.002694365502134813,N
2278,-0.0031224180313568703,N
2279,-0.0032943577302836963,N
2280,-0.0032126338466035393,N
2281,-0.002902658941827352,N
2282,-0.002410153028246389,N
2283,-0.0017966545113216078,N
2284,-0.001133604249304595,N
2285,-0.0004955467977438867,N
2286,4.6917052370186805e-05,N
2287,0.0004337608576389182,N
2288,0.0006211149221443522,N
2289,0.0005852694197862777,N
2290,0.00032472367729831434,N
2291,-0.00013989735276372225,N
2292,-0.0007680249729088034,N
2293,-0.0015031854027360793,N
2294,-0.0022784777963145452,N
2295,-0.0030229485352275256,N
2296,-0.0036682506814561754,N
2297,-0.004154965574917331,N
2298,-0.004438004214012834,N
2299,-0.004490596066899914,N
2300,-0.004306506796253151,N
2301,-0.0039002941134338082,N
2302,-0.003305599276377416,N
2303,-0.0025716641168446355,N
2304,-0.001758439138244668,N
2305,-0.0009307849092223041,N
2306,-0.00015235003993350194,N
2307,0.0005202721719494973,N
2308,0.0010425477001151289,N
2309,0.001385699595402782,N
2310,0.0015387684342203951,N
2311,0.001508868141648009,N
2312,0.0013196483857808865,N
2313,0.001008153204233515,N
2314,0.0006204268031751045,N
2315,0.00020634219460611354,N
2316,-0.00018579890020712476,N
2317,-0.0005143304561604458,N
2318,-0.0007484233225885046,N
2319,-0.0008709814968018425,N
2320,-0.0008799251754463441,N
2321,-0.0007877271893151379,N
2322,-0.0006192694015393934,N
2323,-0.0004082845110941245,N
2324,-0.0001928167303058446,N
2325,-1.0246739651776601e-05,N
2326,0.00010753250978285794,N
2327,0.0001382347299008031,N
2328,7.213727137293587e-05,N
2329,-8.643303884002843e-05,N
2330,-0.0003192190754553317,N
2331,-0.0005957132788499437,N
2332,-0.0008761946223793661,N
2333,-0.0011157929579450987,N
2334,-0.0012691645731132606,N
2335,-0.0012953178163702004,N
2336,-0.0011621231895182836,N
2337,-0.0008500760374600613,N
2338,-0.0003549486422101189,N
2339,0.0003109327406701045,N
2340,0.001118928652942342,N
2341,0.002025852071628322,N
2342,0.0029771273888034027,N
2343,0.003911082425829481,N
2344,0.0047640059035168126,N
2345,0.005475525679481251,N
2346,0.005993822695321615,N
2347,0.00628019806543029,N
2348,0.006312560455155513,N
2349,0.006087496265774149,N
2350,0.00562071546930912,N
2351,0.00494581404685934,N
2352,0.004111443969973483,N
2353,0.0031771238774330308,N
2354,0.0022080516402845675,N
2355,0.0012693846506874064,N
2356,0.00042052192911319993,N
2357,-0.0002900582958529707,N
2358,-0.0008288892724834933,N
2359,-0.0011801161852501066,N
2360,-0.001346341537503451,N
2361,-0.001347642883229171,N
2362,-0.0012188928333460303,N
2363,-0.0010056934216070741,N
2364,-0.0007593750176651328,N
2365,-0.0005315910302530275,N
2366,-0.00036906066168516645,N
2367,-0.00030897677909543994,N
2368,-0.00037551195001416486,N
2369,-0.0005777325732898888,N
2370,-0.0009090815025181761,N
2371,-0.0013484293183485944,N
2372,-0.001862540321449762,N
2373,-0.0024096670806008943,N
2374,-0.002943889663703315,N
2375,-0.003419759735386911,N
2376,-0.0037967958030176874,N
2377,-0.004043400036005925,N
2378,-0.004139825299134227,N
2379,-0.0040799100205532735,N
2380,-0.00387141343897227,N
2381,-0.003534917108394073,N
2382,-0.0031013999104044176,N
2383,-0.002608730029975691,N
2384,-0.0020974338254784375,N
2385,-0.001606185852295589,N
2386,-0.0011675082294765697,N
2387,-0.0008041645401300091,N
2388,-0.0005266766642290708,N
2389,-0.0003322798399190008,N
2390,-0.000205470932753358,N
2391,-0.00012011838030100685,N
2392,-4.2915546752613946e-05,N
2393,6.220339389001095e-05,N
2394,0.0002291845691047101,N
2395,0.0004850726220402321,N
2396,0.0008458816104615234,N
2397,0.0013136054899420895,N
2398,0.0018747312854788308,N
2399,0.0025004548837502727,N
2400,0.0031486165863208633,N
2401,0.0037671917313891927,N
2402,0.004299009462127933,N
2403,0.004687244945619548,N
2404,0.004881147089068969,N
2405,0.004841430709190216,N
2406,0.00454478198708556,N
2407,0.003986999764134458,N
2408,0.0031844207297506396,N
2409,0.002173445850755536,N
2410,0.0010081816399166391,N
2411,-0.00024359207458586902,N
2412,-0.0015057441347892774,N
2413,-0.0026998967358395514,N
2414,-0.003751743105266857,N
2415,-0.004597006366742494,N
2416,-0.005186518115028867,N
2417,-0.0054899870318187655,N
2418,-0.005498149328385306,N
2419,-0.005223132930766065,N
2420,-0.0046970182337898,N
2421,-0.003968732793224043,N
2422,-0.0030995634521908243,N
2423,-0.00215769073780894,N
2424,-0.0012122338512022969,N
2425,-0.0003273352536512462,N
2426,0.0004431881682350258,N
2427,0.0010601452098391276,N
2428,0.0015018277553230236,N
2429,0.0017651596585150967,N
2430,0.0018650298290038613,N
2431,0.001831877251749285,N
2432,0.001707770838989292,N
2433,0.0015413843609479924,N
2434,0.0013823873185230724,N
2435,0.0012758394087857277,N
2436,0.0012571785214891009,N
2437,0.0013483292177829257,N
2438,0.0015553381786861918,N
2439,0.001867777683517924,N
2440,0.0022599639350368056,N
2441,0.0026938351060170557,N
2442,0.0031231496808420333,N
2443,0.0034985241610744253,N
2444,0.0037727496224001533,N
2445,0.0039058173593308886,N
2446,0.0038691409283146986,N
2447,0.0036485712303188007,N
2448,0.0032459435630897834,N
2449,0.0026790511806572964,N
2450,0.001980093000098253,N
2451,0.001192782596419132,N
2452,0.00036842138872137753,N
2453,-0.00043867988043139617,N
2454,-0.0011760071263037504,N
2455,-0.0017974513590680934,N
2456,-0.0022673265810118815,N
2457,-0.002563461909297281,N
2458,-0.002679110114750873,N
2459,-0.0026235071238577836,N
2460,-0.0024210215908461695,N
2461,-0.0021089484294417762,N
2462,-0.001734120556135333,N
2463,-0.0013486289850243118,N
2464,-0.0010050379119918968,N
2465,-0.0007515428997737866,N
2466,-0.0006275357657105092,N
2467,-0.0006600058489409763,N
2468,-0.0008611272183124081,N
2469,-0.0012272631129373996,N
2470,-0.0017394744414608628,N
2471,-0.002365463536154495,N
2472,-0.0030627348854387333,N
2473,-0.003782630530254747,N
2474,-0.00447481761629039,N
2475,-0.005091779619879368,N
2476,-0.005592887582090918,N
2477,-0.00594768929931186,N
2478,-0.006138138275605803,N
2479,-0.006159582038052871,N
2480,-0.0060204386818943035,N
2481,-0.005740610371999072,N
2482,-0.005348807791927644,N
2483,-0.004879076398646068,N
2484,-0.0043669047873149385,N
2485,-0.003845342371849142,N
2486,-0.0033415520652364306,N
2487,-0.0028741753936043684,N
2488,-0.002451797340278202,N
2489,-0.00207267173217757,N
2490,-0.0017257136858409498,N
2491,-0.0013925997652829523,N
2492,-0.0010506636646512675,N
2493,-0.000676162732693363,N
2494,-0.00024744033997684374,N
2495,0.00025246899089302957,N
2496,0.0008341538797184448,N
2497,0.001501276556790167,N
2498,0.002251199408751887,N
2499,0.0030766474688273806,N
2500,0.003968109925826095,N
2501,0.0049165693573603305,N
2502,0.005916087720531937,N
2503,0.006965780115870009,N
2504,0.008070770525721698,N
2505,0.009241839071859043,N
2506,0.010493624388971839,N
2507,0.01184142402477795,N
2508,0.013296826015471252,N
2509,0.014862587248366931,N
2510,0.016527325515009857,N
2511,0.01826068903658514,N
2512,0.020009693364446995,N
2513,0.021696864649639054,N
2514,0.023220702973071227,N
2515,0.024458789355903638,N
2516,0.025273620870266713,N
2517,0.025520990802823558,A
2518,0.025060459328369887,N
2519,0.023767208910216556,N
2520,0.021544369525160798,N
2521,0.01833475264323518,N
2522,0.014130872047105279,N
2523,0.008982175384508007,N
2524,0.0029985743061911427,N
2525,-0.003650363771460242,N
2526,-0.010740839581688937,N
2527,-0.01800473457585096,N
2528,-0.025143479195793895,N
2529,-0.03184497622117691,N
2530,-0.037802383504104226,N
2531,-0.04273336505687192,N
2532,-0.04639834141770691,N
2533,-0.04861631779552724,N
2534,-0.04927704154299925,N
2535,-0.04834852754235378,N
2536,-0.04587936450927048,N
2537,-0.04199563768707691,N
2538,-0.036892731074967614,N
2539,-0.030822667697922225,N
2540,-0.024077979621401582,N
2541,-0.016973346307820807,N
2542,-0.009826381349717766,N
2543,-0.002938971445961127,N
2544,0.00341952382302334,N
2545,0.009026105688654218,N
2546,0.013714183775105363,N
2547,0.01737935387011377,N
2548,0.019980770915290328,N
2549,0.021538312295884404,N
2550,0.022126016215189396,N
2551,0.021862513846335047,N
2552,0.02089933803241897,N
2553,0.019408074608822854,N
2554,0.017567323265795878,N
2555,0.01555036388302714,N
2556,0.013514300498127876,N
2557,0.0115912984104166,N
2558,0.009882354846249525,N
2559,0.008453856980980706,N
2560,0.007336985385061215,N
2561,0.006529821225001945,N
2562,0.006001824256893737,N
2563,0.005700183027494407,N
2564,0.0055574135032675975,N
2565,0.005499505882200624,N
2566,0.0054538963440174,N
2567,0.005356576851020739,N
2568,0.005157757608784733,N
2569,0.004825660632047707,N
2570,0.004348230268721733,N
2571,0.0037327661466028425,N
2572,0.003003684182559575,N
2573,0.0021987696190106194,N
2574,0.0013643906061854313,N
2575,0.0005501886245081502,N
2576,-0.00019624164893987573,N
2577,-0.0008342134430010396,N
2578,-0.0013339480827011434,N
2579,-0.0016793945601882106,N
2580,-0.0018696442558348097,N
2581,-0.001918828635231283,N
2582,-0.0018545137585510827,N
2583,-0.001714733867623966,N
2584,-0.0015439241397525011,N
2585,-0.001388112453802773,N
2586,-0.0012898090635191108,N
2587,-0.0012830880073051263,N
2588,-0.0013893761720351408,N
2589,-0.0016144414353527136,N
2590,-0.001946987030699348,N
2591,-0.002359110817043762,N
2592,-0.0028086871568709735,N
2593,-0.003243503767723157,N
2594,-0.0036067712733278117,N
2595,-0.0038434485246496247,N
2596,-0.003906710259256618,N
2597,-0.0037638356210857914,N
2598,-0.0034008238731187655,N
2599,-0.002825151906200895,N
2600,-0.0020662736463784043,N
2601,-0.001173708852774701,N
2602,-0.00021285039968584795,N
2603,0.0007411025272233397,N
2604,0.0016104438431303358,N
2605,0.0023226963433277516,N
2606,0.00281793330118562,N
2607,0.003054885615285804,N
2608,0.0030151772859472003,N
2609,0.002705245045908682,N
2610,0.002155753174202399,N
2611,0.0014185827788166013,N
2612,0.000561728102618249,N
2613,-0.0003373544087997376,N
2614,-0.00119924641806165,N
2615,-0.0019501435875866546,N
2616,-0.0025287396936774093,N
2617,-0.0028917363340014556,N
2618,-0.0030174469259212277,N
2619,-0.002907166160794651,N
2620,-0.002584211616111529,N
2621,-0.0020907907467574986,N
2622,-0.0014830766400002083,N
2623,-0.0008250594848971922,N
2624,-0.00018185241258139505,N
2625,0.00038684120018662565,N
2626,0.0008324426712084783,N
2627,0.0011218555361180013,N
2628,0.0012400910360042035,N
2629,0.0011909795526378762,N
2630,0.0009959828864923943,N
2631,0.000691302919468482,N
2632,0.0003236330907283532,N
2633,-5.498743170844862e-05,N
2634,-0.0003926872085845941,N
2635,-0.0006430941921021019,N
2636,-0.0007699700912087491,N
2637,-0.0007507166175184882,N
2638,-0.000578447996521976,N
2639,-0.00026247466140656147,N
2640,0.00017279773119555165,N
2641,0.0006903971849568307,N
2642,0.001244452909155808,N
2643,0.0017846133018803994,N
2644,0.002260772175607677,N
2645,0.0026276564419623243,N
2646,0.0028488678668993654,N
2647,0.0029000440206652773,N
2648,0.0027708978582610716,N
2649,0.0024660005769911804,N
2650,0.002004278323397099,N
2651,0.0014172919768356822,N
2652,0.000746455380792123,N
2653,3.941898151954919e-05,N
2654,-0.0006540953869874738,N
2655,-0.0012866739245294293,N
2656,-0.001817432163246385,N
2657,-0.0022156885435037793,N
2658,-0.0024637186958744927,N
2659,-0.0025582844074574685,N
2660,-0.0025107445360005943,N
2661,-0.0023457024851303307,N
2662,-0.002098304695481792,N
2663,-0.0018104536901089212,N
2664,-0.0015263162093806081,N
2665,-0.0012875769983194476,N
2666,-0.0011289080658547991,N
2667,-0.0010740977083257604,N
2668,-0.0011332221447893736,N
2669,-0.0013011518382457375,N
2670,-0.001557568678653993,N
2671,-0.001868534291133857,N
2672,-0.0021895041528362516,N
2673,-0.002469542813471496,N
2674,-0.0026563777937833703,N
2675,-0.0027018438099566306,N
2676,-0.0025672207329813963,N
2677,-0.002227962567583182,N
2678,-0.0016773532665072532,N
2679,-0.0009287063850501718,N
2680,-1.5842022620440414e-05,N
2681,0.0010082841258725404,N
2682,0.0020747695165141025,N
2683,0.003103583988176459,N
2684,0.00400968528202242,N
2685,0.004709970949903384,N
2686,0.005130511153377388,N
2687,0.005213449035284659,N
2688,0.0049229428057183154,N
2689,0.004249563790405477,N
2690,0.0032126616569430073,N
2691,0.0018603596402621992,N
2692,0.0002670406066386056,N
2693,-0.0014715835313087778,N
2694,-0.003245479901314413,N
2695,-0.004938806191918766,N
2696,-0.006439160648688049,N
2697,-0.007646688570413264,N
2698,-0.008482138652266148,N
2699,-0.008893034823604762,N
2700,-0.008857293721051571,N
2701,-0.008383864789113807,N
2702,-0.007510283712210561,N
2703,-0.006297385132669509,N
2704,-0.004821779256869197,N
2705,-0.003167009659250154,N
2706,-0.0014145226059625107,N
2707,0.00036435528604997235,N
2708,0.0021143407768850356,N
2709,0.0037992054900743265,N
2710,0.005401474680868534,N
2711,0.006918902425432276,N
2712,0.008358301293381075,N
2713,0.009727714585973771,N
2714,0.011028188942126378,N
2715,0.012246500880089512,N
2716,0.01335010652989961,N
2717,0.014285330860079954,N
2718,0.014979409355892443,N
2719,0.015346468516075606,A
2720,0.015296933942277454,N
2721,0.01474927534687348,N
2722,0.013642549868313859,N
2723,0.011947988813421276,N
2724,0.009677936536512605,N
2725,0.006890776535951811,N
2726,0.0036910013746158927,N
2727,0.0002242060609924257,N
2728,-0.003332588148596048,N
2729,-0.006784322771288063,N
2730,-0.009933631112032567,N
2731,-0.012597285420433311,N
2732,-0.014621677085982852,N
2733,-0.01589577296498973,N
2734,-0.016360295912912423,N
2735,-0.016012317806519533,N
2736,-0.01490496416599289,N
2737,-0.013142436459751801,N
2738,-0.01087099303799665,N
2739,-0.00826684508418792,N
2740,-0.005522103502297842,N
2741,-0.0028299702141037462,N
2742,-0.0003703342487998892,N
2743,0.0017031609021898075,N
2744,0.0032736512073521036,N
2745,0.004268443218532954,N
2746,0.004662751650757979,N
2747,0.004479554606605319,N
2748,0.0037856508933861227,N
2749,0.002684318038579695,N
2750,0.001305251665203862,N
2751,-0.00020731051998853356,N
2752,-0.0017072336180410036,N
2753,-0.0030588018708982067,N
2754,-0.00414765564787755,N
2755,-0.004889438984941412,N
2756,-0.005235470217151951,N
2757,-0.005175032307386401,N
2758,-0.004734196803505876,N
2759,-0.003971414487856309,N
2760,-0.0029703973098918843,N
2761,-0.001831054172725092,N
2762,-0.0006594039903299264,N
2763,0.0004425454241025698,N
2764,0.0013860017080356587,N
2765,0.0021028575797649935,N
2766,0.0025508171774600566,N
2767,0.0027158296635252694,N
2768,0.002611757295923352,N
2769,0.0022774663526813972,N
2770,0.0017717499775624333,N
2771,0.0011666604541884465,N
2772,0.0005399414964934216,N
2773,-3.269505236611358e-05,N
2774,-0.0004847161548580878,N
2775,-0.000764687746429651,N
2776,-0.0008404607847428929,N
2777,-0.0007013036847869715,N
2778,-0.0003578736103732494,N
2779,0.00015986671489061092,N
2780,0.0008064853658107743,N
2781,0.0015262137580810923,N
2782,0.002258815741025229,N
2783,0.002945590553588609,N
2784,0.0035349232828553825,N
2785,0.003986867463648249,N
2786,0.004276361672459175,N
2787,0.00439483241168268,N
2788,0.004350101998244186,N
2789,0.0041646834934773854,N
2790,0.0038726884127268497,N
2791,0.003515687474132468,N
2792,0.003137947351374988,N
2793,0.0027815157073948636,N
2794,0.002481637963373569,N
2795,0.0022629577631495075,N
2796,0.0021368793667345654,N
2797,0.002100359130570125,N
2798,0.0021362523188882573,N
2799,0.0022151823390651614,N
2800,0.002298739315622837,N
2801,0.0023436743033827087,N
2802,0.0023066532501463174,N
2803,0.002149083125902448,N
2804,0.0018415244874269954,N
2805,0.0013672557249196082,N
2806,0.0007246450373429758,N
2807,-7.189613955809553e-05,N
2808,-0.0009924740033064921,N
2809,-0.0019937502148141407,N
2810,-0.0030222888706396547,N
2811,-0.00401892178135946,N
2812,-0.004923735308412978,N
2813,-0.0056812080709015365,N
2814,-0.006245003470503901,N
2815,-0.006581955919161004,N
2816,-0.006674882965931724,N
2817,-0.006523988055948726,N
2818,-0.006146762863124229,N
2819,-0.005576433016707656,N
2820,-0.004859108285782637,N
2821,-0.004049896024107401,N
2822,-0.00320831199294188,N
2823,-0.0023933713212775875,N
2824,-0.0016587622351092494,N
2825,-0.0010484971879695343,N
2826,-0.0005934011953095926,N
2827,-0.0003087343884907014,N
2828,-0.0001931544047519919,N
2829,-0.0002291096285728626,N
2830,-0.0003846290362093687,N
2831,-0.0006163526733164867,N
2832,-0.0008735396728563045,N
2833,-0.0011027065414635176,N
2834,-0.0012524943032830753,N
2835,-0.0012783436483980654,N
2836,-0.0011465732808469996,N
2837,-0.0008375059384234443,N
2838,-0.00034736571409753466,N
2839,0.00031122429180224326,N
2840,0.0011101891458725555,N
2841,0.0020083041547327633,N
2842,0.002954634010155727,N
2843,0.0038927873049043396,N
2844,0.004765596084367064,N
2845,0.005519800359235743,N
2846,0.006110325235540606,N
2847,0.006503779959745609,N
2848,0.006680879155629384,N
2849,0.0066375815379743006,N
2850,0.006384854300663809,N
2851,0.0059470944457803735,N
2852,0.005359361563234106,N
2853,0.004663689150850009,N
2854,0.0039048342497534144,N
2855,0.003125889754241034,N
2856,0.002364210068107729,N
2857,0.0016480785081624395,N
2858,0.0009944713048308839,N
2859,0.00040815758271808454,N
2860,-0.00011776589311228287,N
2861,-0.0005999555666173667,N
2862,-0.0010617114062148228,N
2863,-0.0015289948714380783,N
2864,-0.002025986541242441,N
2865,-0.0025706537116040253,N
2866,-0.0031708208870364677,N
2867,-0.0038212207528225,N
2868,-0.004501941463100704,N
2869,-0.005178568408632447,N
2870,-0.005804145502453376,N
2871,-0.006322869964173884,N
2872,-0.006675217063743452,N
2873,-0.006804002634407789,N
2874,-0.006660760782096035,N
2875,-0.006211759540144869,N
2876,-0.005443001324296262,N
2877,-0.0043636481505756235,N
2878,-0.0030074569495598825,N
2879,-0.0014319916968230512,N
2880,0.000284416562620313,N
2881,0.0020477769815701427,N
2882,0.0037552235396283566,N
2883,0.005302911589005236,N
2884,0.006594334137845603,N
2885,0.007548301875179762,N
2886,0.008105839356330606,N
2887,0.00823533486923622,N
2888,0.007935438754692957,N
2889,0.007235417171011558,N
2890,0.006192909166496624,N
2891,0.004889276871586546,N
2892,0.003422957703503777,N
2893,0.0019014042744089081,N
2894,0.00043231775946647976,N
2895,-0.0008850643472651017,N
2896,-0.001967876509526175,N
2897,-0.0027560543160841714,N
2898,-0.0032167397832999893,N
2899,-0.0033462943587564036,N
2900,-0.0031697613185280252,N
2901,-0.0027378481209697726,N
2902,-0.002121726803101087,N
2903,-0.0014061523236609955,N
2904,-0.0006815513490106782,N
2905,-3.582032345197141e-05,N
2906,0.0004534157140921758,N
2907,0.0007253913708911233,N
2908,0.0007410671093775573,N
2909,0.0004858796818357638,N
2910,-2.9805457666377703e-05,N
2911,-0.0007724966565155494,N
2912,-0.0016893775717901575,N
2913,-0.0027136763454043418,N
2914,-0.0037710501819032236,N
2915,-0.004786372451617121,N
2916,-0.005690304172201689,N
2917,-0.006425071782232991,N
2918,-0.006948952123923,N
2919,-0.00723908394967391,N
2920,-0.007292382739479475,N
2921,-0.007124521629385291,N
2922,-0.006767135528178575,N
2923,-0.006263585080944315,N
2924,-0.005663760847036533,N
2925,-0.0050184987907912855,N
2926,-0.004374206349292172,N
2927,-0.003768263604925992,N
2928,-0.0032256724595439955,N
2929,-0.0027572870316691406,N
2930,-0.0023597833241300785,N
2931,-0.002017333963650859,N
2932,-0.001704766584294322,N
2933,-0.001391822622783702,N
2934,-0.001048012137239986,N
2935,-0.0006474895144653593,N
2936,-0.0001733602837739894,N
2937,0.000379126316168447,N
2938,0.0010009407023721085,N
2939,0.0016694759081514183,N
2940,0.0023506738164087073,N
2941,0.0030029361740102254,N
2942,0.00358246254175206,N
2943,0.004049468022868798,N
2944,0.004374598784925981,N
2945,0.0045447987629959425,N
2946,0.004567891823043979,N
2947,0.0044752282742942465,N
2948,0.00432189705735982,N
2949,0.0041842159570292786,N
2950,0.004154468957338399,N
2951,0.004333144090954994,N
2952,0.004819210774842695,N
2953,0.005699229853572113,N
2954,0.007036278261231878,N
2955,0.008859766003009955,N
2956,0.011157212199124087,N
2957,0.013868929410205509,N
2958,0.016886351854654005,N
2959,0.02005445273278386,N
2960,0.023178356279684894,N
2961,0.026033892850513364,N
2962,0.028381500464235355,N
2963,0.029982570510248514,N
2964,0.03061709082614934,A
2965,0.03010127351099034,N
2966,0.028303782956524907,N
2967,0.025159215106938148,N
2968,0.020677628744565163,N
2969,0.01494918908391262,N
2970,0.008143335807973105,N
2971,0.0005023027320381841,N
2972,-0.007670743221710148,N
2973,-0.01602824945175879,N
2974,-0.024198437935106468,N
2975,-0.03180769851702319,N
2976,-0.03850362352286863,N
2977,-0.04397699316324401,N
2978,-0.04798105133312888,N
2979,-0.05034658172831241,N
2980,-0.05099160626052084,N
2981,-0.04992496500612654,N
2982,-0.04724355984439584,N
2983,-0.04312359506033132,N
2984,-0.03780666468682421,N
2985,-0.0315819617669777,N
2986,-0.024766175670714957,N
2987,-0.017682773529509952,N
2988,-0.010642322642789963,N
2989,-0.003925312358530854,N
2990,0.002231396598907144,N
2991,0.007643787624126753,N
2992,0.012185315854816461,N
2993,0.015787125649126606,N
2994,0.018434391850409636,N
2995,0.020159573243574484,N
2996,0.021033513512021526,N
2997,0.02115537073366662,N
2998,0.02064231269431123,N
2999,0.019619797521306135,N
3000,0.018213086191016175,N
3001,0.016540426746191297,N
3002,0.014708132542536572,N
3003,0.01280757113268073,N
3004,0.010913906213880345,N
3005,0.009086306365082439,N
3006,0.007369256600988249,N
3007,0.005794579279004368,N
3008,0.0043837817669281,N
3009,0.0031503903092187325,N
3010,0.0021019943532340694,N
3011,0.00124180603945145,N
3012,0.0005696289613720813,N
3013,8.222223306629935e-05,N
3014,-0.00022686589881927907,N
3015,-0.0003678427051746008,N
3016,-0.00035538131514611286,N
3017,-0.000209250017039891,N
3018,4.5386089720529185e-05,N
3019,0.00037820049134107214,N
3020,0.000754617022469588,N
3021,0.0011374425227454095,N
3022,0.0014891558060503003,N
3023,0.0017746785578501892,N
3024,0.0019643586353413926,N
3025,0.00203682940721487,N
3026,0.001981381378641763,N
3027,0.0017995027863140273,N
3028,0.001505316490066232,N
3029,0.0011247552471318248,N
3030,0.0006934631123580445,N
3031,0.0002535687930295354,N
3032,-0.00015037503234148462,N
3033,-0.00047587711428814,N
3034,-0.0006869448048993163,N
3035,-0.0007579981011910659,N
3036,-0.0006768433906802733,N
3037,-0.0004463937597278769,N
3038,-8.495346759094398e-05,N
3039,0.0003749771540658045,N
3040,0.0008892866014231808,N
3041,0.001406015285892345,N
3042,0.00186997910183565,N
3043,0.002227853046383239,N
3044,0.0024332666515571684,N
3045,0.00245145710486882,N
3046,0.002263057486412918,N
3047,0.0018666555517846488,N
3048,0.0012798366647056888,N
3049,0.0005385255390416287,N
3050,-0.0003054284496010846,N
3051,-0.0011883181209573533,N
3052,-0.002040016351050992,N
3053,-0.0027903329875238496,N
3054,-0.0033757012509682337,N
3055,-0.0037455222291552085,N
3056,-0.003867486001654201,N
3057,-0.0037312583500703966,N
3058,-0.0033500708771622475,N
3059,-0.0027599651334754417,N
3060,-0.002016694813585449,N
3061,-0.0011905558309089049,N
3062,-0.0003596586444532043,N
3063,0.0003976549346793387,N
3064,0.0010104458891934506,N
3065,0.0014220553605667561,N
3066,0.0015955099239328447,N
3067,0.001516910265565948,N
3068,0.0011964826341031576,N
3069,0.0006672213407382632,N
3070,-1.8701675682282392e-05,N
3071,-0.0007953598643901333,N
3072,-0.0015897464735347272,N
3073,-0.0023290015630736557,N
3074,-0.0029474538752872884,N
3075,-0.003392783346985244,N
3076,-0.0036307254301575376,N
3077,-0.0036479051966545155,N
3078,-0.003452584836228818,N
3079,-0.003073312567141445,N
3080,-0.002555657098850806,N
3081,-0.001957384564754787,N
3082,-0.0013425706443290786,N
3083,-0.0007752268357805623,N
3084,-0.0003130473998777548,N
3085,-1.8523372589515772e-06,N
3086,0.00012877799889800023,N
3087,6.829606655971199e-05,N
3088,-0.0001738328665051743,N
3089,-0.0005690486986258035,N
3090,-0.0010724320965152068,N
3091,-0.001627011697175293,N
3092,-0.0021692435152335316,N
3093,-0.0026351400401854524,N
3094,-0.002966451767500033,N
3095,-0.0031162904384106458,N
3096,-0.003053637212412512,N
3097,-0.0027662986537886555,N
3098,-0.002262045545782536,N
3099,-0.0015678686603237094,N
3100,-0.0007274813425471512,N
3101,0.00020263415450319335,N
3102,0.0011582177853712923,N
3103,0.0020727743843376822,N
3104,0.0028831719579059814,N
3105,0.0035348387892428267,N
3106,0.003986173620081221,N
3107,0.004211866660784712,N
3108,0.004204911879286365,N
3109,0.003977170574245526,N
3110,0.003558428885173617,N
3111,0.0029939850852633847,N
3112,0.0023409076439808666,N
3113,0.0016632153644261553,N
3114,0.0010263351469691005,N
3115,0.0004912805060917906,N
3116,0.00010905549743675255,N
3117,-8.418748686311909e-05,N
3118,-7.073532918714998e-05,N
3119,0.00014676520287391567,N
3120,0.0005453191515978886,N
3121,0.0010835992535905337,N
3122,0.001705819076572615,N
3123,0.0023471007984044606,N
3124,0.002939794861125009,N
3125,0.003420092036520289,N
3126,0.003734231831648695,N
3127,0.0038436582398641704,N
3128,0.0037285969456368174,N
3129,0.0033897105463764655,N
3130,0.0028477061773337095,N
3131,0.002140994552922534,N
3132,0.0013217022750893978,N
3133,0.00045049622613771103,N
3134,-0.00040922595018689356,N
3135,-0.0011971963127799265,N
3136,-0.001861634708336126,N
3137,-0.002363625339486167,N
3138,-0.002680139393333443,N
3139,-0.002805463478775691,N
3140,-0.0027509451950697927,N
3141,-0.002543128591166273,N
3142,-0.002220508654826447,N
3143,-0.0018292665028632816,N
3144,-0.0014184386263408403,N
3145,-0.001035014927706155,N
3146,-0.0007194502717667014,N
3147,-0.0005020172657030367,N
3148,-0.0004003317224308925,N
3149,-0.00041825733929707113,N
3150,-0.0005462550879027604,N
3151,-0.000763098170416982,N
3152,-0.0010387374149661436,N
3153,-0.0013379884817244425,N
3154,-0.001624635136898591,N
3155,-0.0018655106650140828,N
3156,-0.0020341330570451746,N
3157,-0.0021135248998092253,N
3158,-0.002097939520281124,N
3159,-0.001993331923527702,N
3160,-0.0018165444286817156,N
3161,-0.001593308717652385,N
3162,-0.0013552838045086852,N
3163,-0.0011364396890899795,N
3164,-0.0009691497793273572,N
3165,-0.0008803700490928985,N
3166,-0.0008882652675589331,N
3167,-0.0009996012229061995,N
3168,-0.0012081640894445792,N
3169,-0.0014943971105700084,N
3170,-0.0018263577387876244,N
3171,-0.0021619902765148023,N
3172,-0.0024525819392198353,N
3173,-0.002647138361059057,N
3174,-0.002697298901741984,N
3175,-0.0025623305572317337,N
3176,-0.0022137025012042635,N
3177,-0.0016387573828463159,N
3178,-0.0008430633398527298,N
3179,0.0001488511393448997,N
3180,0.001294520538711047,N
3181,0.002536287316782317,N
3182,0.0038055552146734955,N
3183,0.005028183597762275,N
3184,0.006130542549530778,N
3185,0.007045683738908967,N
3186,0.007719063435672358,N
3187,0.008113278580428818,N
3188,0.008211347893983272,N
3189,0.00801819275232449,N
3190,0.007560142890903985,N
3191,0.006882491213379529,N
3192,0.006045321546469879,N
3193,0.00511800499161556,N
3194,0.0041728845349852306,N
3195,0.0032787339586820533,N
3196,0.002494585444044672,N
3197,0.001864477831624213,N
3198,0.0014135952284988582,N
3199,0.001146152276412382,N
3200,0.0010452417313109243,N
3201,0.001074694956657529,N
3202,0.001182824848509165,N
3203,0.0013077389050823764,N
3204,0.0013837464249296608,N
3205,0.0013482569339970001,N
3206,0.0011484939013780612,N
3207,0.0007473418575126461,N
3208,0.00012771244686378498,N
3209,-0.0007050474232096567,N
3210,-0.0017229864245377241,N
3211,-0.0028776653199789693,N
3212,-0.004104359476126861,N
3213,-0.005327921554214989,N
3214,-0.006469702863630597,N
3215,-0.0074548268422313345,N
3216,-0.00821908199116326,N
3217,-0.008714753785910329,N
3218,-0.008914838380526043,N
3219,-0.008815260739317503,N
3220,-0.00843493424923121,N
3221,-0.007813721136004705,N
3222,-0.0070085556096225994,N
3223,-0.00608815157951282,N
3224,-0.005126821092575105,N
3225,-0.004197977778913237,N
3226,-0.0033678996244654617,N
3227,-0.0026902869162877857,N
3228,-0.0022020790581034825,N
3229,-0.0019208866829670992,N
3230,-0.0018442510351479836,N
3231,-0.001950767559356386,N
3232,-0.0022029239076728053,N
3233,-0.0025513295362365697,N
3234,-0.0029398782185284388,N
3235,-0.003311303291005311,N
3236,-0.0036125672428364564,N
3237,-0.003799571779140155,N
3238,-0.003840771704417552,N
3239,-0.0037194089117252352,N
3240,-0.003434231919092351,N
3241,-0.0029987148512800035,N
3242,-0.0024389256263821772,N
3243,-0.0017903075456647793,N
3244,-0.001093723603328569,N
3245,-0.0003911632663944822,N
3246,0.0002784734831890605,N
3247,0.0008831180124794848,N
3248,0.0014004522744660555,N
3249,0.0018197328135243296,N
3250,0.0021423467861255282,N
3251,0.0023810461549735183,N
3252,0.0025579367840307243,N
3253,0.002701429187897261,N
3254,0.0028424722865397255,N
3255,0.003010479637124896,N
3256,0.0032294143494907626,N
3257,0.0035145190266703576,N
3258,0.00387014892336541,N
3259,0.004289077121517252,N
3260,0.004753487823120222,N
3261,0.005237671760745753,N
3262,0.0057122105463505764,N
3263,0.006149212322222241,N
3264,0.006527968739065305,N
3265,0.00684027324914691,N
3266,0.0070945988491886445,N
3267,0.0073183942921267175,N
3268,0.0075579208564362475,N
3269,0.007875301767730861,N
3270,0.00834276693812919,N
3271,0.00903441446722364,N
3272,0.010016142251295249,N
3273,0.01133469097160239,N
3274,0.013006946954908845,N
3275,0.015010749524503281,N
3276,0.017278414308572916,N
3277,0.01969401836647903,N
3278,0.022095206173771354,N
3279,0.024279890196153706,N
3280,0.02601776753842387,N
3281,0.02706609402411336,N
3282,0.027188692912953488,A
3283,0.026176771427518158,N
3284,0.023869815320344143,N
3285,0.020174666158404842,N
3286,0.015080886829007205,N
3287,0.008670704620289685,N
3288,0.0011221872759211377,N
3289,-0.00729516501064523,N
3290,-0.01623257927185004,N
3291,-0.02528137360126226,N
3292,-0.03399826718546096,N
3293,-0.04193475207027991,N
3294,-0.048668175235605765,N
3295,-0.053831929626766854,N
3296,-0.057142152731577724,N
3297,-0.05841858904338786,N
3298,-0.05759777042987564,N
3299,-0.05473736021028559,N
3300,-0.05001132009712986,N
3301,-0.04369640268065963,N
3302,-0.03615124959842483,N
3303,-0.027790001918566724,N
3304,-0.01905274388682389,N
3305,-0.01037527513227404,N
3306,-0.0021606425209590944,N
3307,0.0052454116927213934,N
3308,0.011573371941825951,N
3309,0.016642089326215415,N
3310,0.02036360995507309,N
3311,0.022740788925297656,N
3312,0.023858365476369547,N
3313,0.02386866078075445,N
3314,0.02297341970747394,N
3315,0.021403531124002593,N
3316,0.019398422203238244,N
3317,0.017186835985287488,N
3318,0.014970478847992075,N
3319,0.01291168235746316,N
3320,0.011125790164086538,N
3321,0.00967849795855711,N
3322,0.00858789784924934,N
3323,0.007830563413818088,N
3324,0.007350699615776884,N
3325,0.007071193237638527,N
3326,0.00690533769341297,N
3327,0.006768063006846908,N
3328,0.006585660728981223,N
3329,0.0063032309406081625,N
3330,0.00588936511637101,N
3331,0.005337881373635277,N
3332,0.004666714441418903,N
3333,0.003914305787939096,N
3334,0.003134026352814182,N
3335,0.0023872926275791072,N
3336,0.001736107490462057,N
3337,0.0012357696129989284,N
3338,0.000928448961438311,N
3339,0.0008382254296167341,N
3340,0.0009680419185665242,N
3341,0.0012988411291499702,N
3342,0.0017909465703801971,N
3343,0.0023875292903478475,N
3344,0.0030197971868573706,N
3345,0.0036133787938760213,N
3346,0.004095265891261373,N
3347,0.0044006363106032995,N
3348,0.004478898729929585,N
3349,0.004298379957152407,N
3350,0.003849206817297887,N
3351,0.003144112736630312,N
3352,0.0022171098581014285,N
3353,0.0011201874901064378,N
3354,-8.160069604894913e-05,N
3355,-0.0013161389438095061,N
3356,-0.00251071965357763,N
3357,-0.0035983295461553123,N
3358,-0.004523138410141612,N
3359,-0.005244676907751052,N
3360,-0.005740339065544008,N
3361,-0.0060060304413711435,N
3362,-0.006054987063824127,N
3363,-0.0059149881943376306,N
3364,-0.0056243494213679855,N
3365,-0.005227189342188953,N
3366,-0.004768504209511889,N
3367,-0.004289565105505354,N
3368,-0.0038240845495137858,N
3369,-0.0033954983939368123,N
3370,-0.0030155853070186834,N
3371,-0.002684507502946451,N
3372,-0.0023922107442770693,N
3373,-0.002120981481754199,N
3374,-0.0018488403904577087,N
3375,-0.0015533689325198888,N
3376,-0.00121552671531341,N
3377,-0.0008230236523922424,N
3378,-0.0003728606088414739,N
3379,0.00012725852575310513,N
3380,0.0006588195099532808,N
3381,0.0011937311177345226,N
3382,0.0016967902324277434,N
3383,0.002129135219609809,N
3384,0.0024523338006423546,N
3385,0.0026326760082489666,N
3386,0.00264520931502745,N
3387,0.0024770668532545876,N
3388,0.002129702263202775,N
3389,0.0016197515165718697,N
3390,0.0009783819777599166,N
3391,0.00024914577531088536,N
3392,-0.0005154901380112561,N
3393,-0.0012586269876916937,N
3394,-0.0019240107933848137,N
3395,-0.002461211840357873,N
3396,-0.0028303919795727634,N
3397,-0.0030061731956552823,N
3398,-0.002980200281599713,N
3399,-0.002762112344891549,N
3400,-0.002378790989438711,N
3401,-0.0018719249679823551,N
3402,-0.0012941065203260324,N
3403,-0.0007038339447259073,N
3404,-0.0001599179006764798,N
3405,0.0002841396383130813,N
3406,0.0005852125017824471,N
3407,0.0007145302881765869,N
3408,0.0006601433768263676,N
3409,0.0004276012245075292,N
3410,3.876782224446857e-05,N
3411,-0.00047108500501104897,N
3412,-0.0010575558307680743,N
3413,-0.001672242470047177,N
3414,-0.00226809709847004,N
3415,-0.0028043615034079048,N
3416,-0.003250498379249947,N
3417,-0.0035886728167469698,N
3418,-0.0038145354043823505,N
3419,-0.003936287413833152,N
3420,-0.003972234025524617,N
3421,-0.003947217228532779,N
3422,-0.003888439369905433,N
3423,-0.0038212307042540207,N
3424,-0.003765282058346146,N
3425,-0.0037317664176372213,N
3426,-0.0037216265529707313,N
3427,-0.0037251327933951386,N
3428,-0.0037226433907669304,N
3429,-0.0036863558428302584,N
3430,-0.0035827412613247318,N
3431,-0.0033753175250974764,N
3432,-0.003027442784905396,N
3433,-0.0025048898423206357,N
3434,-0.0017780747871297708,N
3435,-0.0008239341731858097,N
3436,0.0003724542526507591,N
3437,0.0018163575443794879,N
3438,0.0035018395676734036,N
3439,0.005410113956042964,N
3440,0.007507859852956669,N
3441,0.009745710678870213,N
3442,0.012057260321649606,N
3443,0.01435901707090565,N
3444,0.016551746559315548,N
3445,0.018523566964606154,N
3446,0.020154996121549643,N
3447,0.021325920059192382,N
3448,0.021924181623076227,N
3449,0.021855202069194953,N
3450,0.021051778469972374,N
3451,0.019482990987035535,N
3452,0.017161065348521153,N
3453,0.014145118628614835,N
3454,0.01054098708980382,N
3455,0.006496761690708944,N
3456,0.002194170096011347,N
3457,-0.0021635417960571266,N
3458,-0.0063661407999179445,N
3459,-0.010211965920883618,N
3460,-0.01352300758580187,N
3461,-0.016158048222295378,N
3462,-0.01802261245436806,N
3463,-0.019074804673384824,N
3464,-0.01932652620778304,N
3465,-0.018840027305843644,N
3466,-0.017720222720799553,N
3467,-0.0161036374875499,N
3468,-0.014145196056856603,N
3469,-0.012004269736848764,N
3470,-0.00983142008907762,N
3471,-0.00775711778357416,N
3472,-0.005883410105474928,N
3473,-0.004279113076488375,N
3474,-0.0029786809953543775,N
3475,-0.001984512853114615,N
3476,-0.0012721283010432448,N
3477,-0.0007974048203699049,N
3478,-0.0005049221084162685,N
3479,-0.00033641542479307253,N
3480,-0.00023839864665048876,N
3481,-0.00016817338099069174,N
3482,-9.7673401333937e-05,N
3483,-1.487388082131972e-05,N
3484,7.721029613938182e-05,N
3485,0.0001636322172495481,N
3486,0.0002221811195474902,N
3487,0.00022889117518801975,N
3488,0.00016358646128411785,N
3489,1.4677389023347434e-05,N
3490,-0.0002174525076699098,N
3491,-0.0005189204974829725,N
3492,-0.0008628668821546307,N
3493,-0.0012119361980747689,N
3494,-0.0015223734119335069,N
3495,-0.0017491851086912115,N
3496,-0.0018516792843336716,N
3497,-0.0017986498730403388,N
3498,-0.0015725250484336856,N
3499,-0.0011719456886084502,N
3500,-0.0006124577977828209,N
3501,7.474455355199401e-05,N
3502,0.0008458382779850849,N
3503,0.001648751327977991,N
3504,0.0024283557871561997,N
3505,0.003131861487891661,N
3506,0.0037138152992447914,N
3507,0.0041401976211496855,N
3508,0.0043912422990080606,N
3509,0.004462766981866692,N
3510,0.0043659671832929235,N
3511,0.004125780955639973,N
3512,0.0037780573765075183,N
3513,0.0033658512290297513,N
3514,0.002935215782285777,N
3515,0.0025308793760792036,N
3516,0.002192176893149692,N
3517,0.0019495717078685212,N
3518,0.0018220517783519004,N
3519,0.0018156148199553333,N
3520,0.0019229704101863879,N
3521,0.0021244845601098897,N
3522,0.0023902835427840035,N
3523,0.002683329144255766,N
3524,0.0029631856700175793,N
3525,0.003190126411933138,N
3526,0.0033291808623666383,N
3527,0.0033537138555119594,N
3528,0.003248163666578621,N
3529,0.0030096488992068034,N
3530,0.0026482728690190582,N
3531,0.002186091889018317,N
3532,0.0016548532889094601,N
3533,0.001092734997449544,N
3534,0.0005404181846805969,N
3535,3.688952906064803e-05,N
3536,-0.00038460207396614116,N
3537,-0.0007000172017001787,N
3538,-0.0008970528544261423,N
3539,-0.0009764341529118055,N
3540,-0.0009518013304670167,N
3541,-0.0008481748160757118,N
3542,-0.0006991476458006891,N
3543,-0.0005431101179061254,N
3544,-0.0004189314252215088,N
3545,-0.00036158957702708936,N
3546,-0.0003982464814332504,N
3547,-0.0005452103205898076,N
3548,-0.0008061206323773185,N
3549,-0.0011715467913346515,N
3550,-0.001620025395972846,N
3551,-0.0021203960358976886,N
3552,-0.0026351475574722923,N
3553,-0.003124375654516781,N
3554,-0.0035498905826672703,N
3555,-0.0038790065330754284,N
3556,-0.004087588039518179,N
3557,-0.00416201527821467,N
3558,-0.004099851992608563,N
3559,-0.003909151669714155,N
3560,-0.0036065104419733653,N
3561,-0.003214149666627966,N
3562,-0.0027564570917925023,N
3563,-0.002256500528662254,N
3564,-0.0017330312343312396,N
3565,-0.0011984162141311886,N
3566,-0.0006577982602876033,N
3567,-0.00010960578314609212,N
3568,0.0004526537853898635,N
3569,0.0010375609412001186,N
3570,0.0016523026558512692,N
3571,0.002299033602297976,N
3572,0.0029716106510749973,N
3573,0.0036532041024675624,N
3574,0.004315197185271856,N
3575,0.0049176389915704805,N
3576,0.005411333412944894,N
3577,0.005741451532443052,N
3578,0.0058523723953094655,N
3579,0.005693308141366563,N
3580,0.00522416717696,N
3581,0.004421058973962705,N
3582,0.0032808486370315445,N
3583,0.0018242310851098727,N
3584,9.691322712814359e-05,N
3585,-0.0018313414370983011,N
3586,-0.0038698564575266807,N
3587,-0.00591222298021788,N
3588,-0.007843176468373968,N
3589,-0.009546667895264201,N
3590,-0.010914505622859992,N
3591,-0.01185486637300871,N
3592,-0.012299944740769503,N
3593,-0.01221203878348471,N
3594,-0.011587463840796347,N
3595,-0.010457849673820097,N
3596,-0.00888859512169362,N
3597,-0.006974507327986676,N
3598,-0.004832914559231082,N
3599,-0.0025947891666899467,N
3600,-0.0003946256706346706,N
3601,0.0016400382319913234,N
3602,0.0033985161126273136,N
3603,0.004795388152329566,N
3604,0.005776685592391289,N
3605,0.006323310883380067,N
3606,0.006451426488686254,A
3607,0.006209830402766288,N
3608,0.005674612192200778,N
3609,0.004941624636429795,N
3610,0.004117491700326815,N
3611,0.0033099871102830105,N
3612,0.0026186493486010415,N
3613,0.0021264478559032754,N
3614,0.001893190542748412,N
3615,0.001951179921897522,N
3616,0.0023034042675087758,N
3617,0.0029243147628121983,N
3618,0.003763013762774203,N
3619,0.004748482419227263,N
3620,0.0057963199190878235,N
3621,0.006816358681879637,N
3622,0.007720466495810466,N
3623,0.00842985383693348,N
3624,0.00888127551185788,N
3625,0.009031646518164446,N
3626,0.008860768395063492,N
3627,0.008372059330696376,N
3628,0.007591369780918548,N
3629,0.006564121688445339,N
3630,0.005351120414750226,N
3631,0.004023450882513456,N
3632,0.002656886953570247,N
3633,0.0013262246705693789,N
3634,9.990902949124616e-05,N
3635,-0.0009647243255330172,N
3636,-0.0018253162252296455,N
3637,-0.0024572256949558476,N
3638,-0.002854959663000505,N
3639,-0.0030321671632221863,N
3640,-0.0030201582480259316,N
3641,-0.0028650100945691037,N
3642,-0.0026234355133883517,N
3643,-0.0023577016266049253,N
3644,-0.0021299885850330565,N
3645,-0.001996659221202591,N
3646,-0.002002957296205841,N
3647,-0.002178649553717105,N
3648,-0.002535063815722836,N
3649,-0.00306385080522692,N
3650,-0.0037376236600302165,N
3651,-0.004512429805189859,N
3652,-0.005331814306430077,N
3653,-0.006132070337432835,N
3654,-0.006848161752685646,N
3655,-0.0074197546364421435,N
3656,-0.007796807187748563,N
3657,-0.007944228789350362,N
3658,-0.007845213762532374,N
3659,-0.007502970325985729,N
3660,-0.006940694048468529,N
3661,-0.006199774044156372,N
3662,-0.005336363175378739,N
3663,-0.004416579835065604,N
3664,-0.003510726805928125,N
3665,-0.0026870044473622286,N
3666,-0.002005256859762893,N
3667,-0.0015113158751947683,N
3668,-0.0012324910002462957,N
3669,-0.0011746849626746135,N
3670,-0.001321488277207176,N
3671,-0.001635424521743447,N
3672,-0.00206129662830383,N
3673,-0.0025313527657707838,N
3674,-0.002971782834158476,N
3675,-0.0033099012177232145,N
3676,-0.003481284532391286,N
3677,-0.0034361233514905803,N
3678,-0.0031441194382580144,N
3679,-0.0025974125039846165,N
3680,-0.0018112376070370244,N
3681,-0.0008222686392131948,N
3682,0.00031513905093431957,N
3683,0.0015343673693534023,N
3684,0.002763009282060456,N
3685,0.00392970275992804,N
3686,0.004970624703873215,N
3687,0.005835015483640157,N
3688,0.006489233840249323,N
3689,0.006919007810961011,N
3690,0.00712973106063241,N
3691,0.007144841388672593,N
3692,0.00700249719314057,N
3693,0.006750925004845153,N
3694,0.006442932388387981,N
3695,0.0061301529606522746,N
3696,0.005857606592232377,N
3697,0.00565911748494033,N
3698,0.005554040733385483,N
3699,0.005545611695531833,N
3700,0.005621062050275059,N
3701,0.005753458001305293,N
3702,0.005905033101684359,N
3703,0.0060316353690909865,N
3704,0.006087803675443579,N
3705,0.0060319398455237205,N
3706,0.005831050720036983,N
3707,0.0054645932686934896,N
3708,0.00492705531340428,N
3709,0.00422903133863236,N
3710,0.003396695332166686,N
3711,0.002469721170864978,N
3712,0.001497845316977102,N
3713,0.0005363931481666953,N
3714,-0.0003588137812955554,N
3715,-0.0011366946509908187,N
3716,-0.001755798691383151,N
3717,-0.002188379322216784,N
3718,-0.0024232511692355053,N
3719,-0.002467134255649838,N
3720,-0.0023443314964206314,N
3721,-0.002094750865237717,N
3722,-0.0017704515073976306,N
3723,-0.0014310389108007488,N
3724,-0.0011383386573096028,N
3725,-0.0009508332218727528,N
3726,-0.0009183537138992285,N
3727,-0.0010774845767778836,N
3728,-0.001448069382313419,N
3729,-0.0020311051217868094,N
3730,-0.0028081915441467843,N
3731,-0.0037425774956162654,N
3732,-0.004781730237741184,N
3733,-0.005861247776392483,N
3734,-0.006909834094346828,N
3735,-0.007854963481585927,N
3736,-0.008628782587432764,N
3737,-0.00917375151785545,N
3738,-0.009447519857238029,N
3739,-0.009426576283283717,N
3740,-0.009108303397302998,N
3741,-0.008511208369260134,N
3742,-0.007673270912420694,N
3743,-0.006648530242665359,N
3744,-0.005502199874622839,N
3745,-0.004304739948567479,N
3746,-0.0031254249584418046,N
3747,-0.002026013250058843,N
3748,-0.001055142433049912,N
3749,-0.00024403133356714303,N
3750,0.0003960396043541696,N
3751,0.0008741658872698244,N
3752,0.0012180826749696417,N
3753,0.001470392156389003,N
3754,0.001683110572039549,N
3755,0.0019110759068429468,N
3756,0.002204894581433455,N
3757,0.002604183660434297,N
3758,0.003131871834885869,N
3759,0.003790246181839408,N
3760,0.004559267845507694,N
3761,0.005397437491520653,N
3762,0.006245196688206059,N
3763,0.007030544032064326,N
3764,0.007676270594896837,N
3765,0.008108019834330973,N
3766,0.008262280318703451,N
3767,0.008093433983381535,N
3768,0.007579099095970861,N
3769,0.006723205464916041,N
3770,0.0055564940505603315,N
3771,0.004134414538458418,N
3772,0.0025326686293804025,N
3773,0.0008408792087620199,N
3774,-0.0008449688462988891,N
3775,-0.0024305804323573495,N
3776,-0.0038311405754596034,N
3777,-0.004978134408247253,N
3778,-0.005824586875818242,N
3779,-0.006348258386669982,N
3780,-0.006552520316992749,N
3781,-0.006464853733965776,N
3782,-0.006133146976938756,N
3783,-0.005620187047686993,N
3784,-0.004996919778213209,N
3785,-0.004335174169905573,N
3786,-0.0037005968201973237,N
3787,-0.003146520043612269,N
3788,-0.002709391765530788,N
3789,-0.002406230095771184,N
3790,-0.0022343433186827284,N
3791,-0.0021732995991503843,N
3792,-0.0021888698780251534,N
3793,-0.0022384349488129432,N
3794,-0.002277173151961882,N
3795,-0.002264249236099099,N
3796,-0.0021682182804087504,N
3797,-0.001970943539722942,N
3798,-0.0016694983718888775,N
3799,-0.001275765257385903,N
3800,-0.0008137342250033082,N
3801,-0.0003148047403471906,N
3802,0.00018833021668301843,N
3803,0.0006684300105794403,N
3804,0.0011101789011902841,N
3805,0.0015154724531080482,N
3806,0.0019066992538712374,N
3807,0.0023273885690562506,N
3808,0.0028398643464705997,N
3809,0.003519872885967524,N
3810,0.004448501687108667,N
3811,0.005702041675364581,N
3812,0.007340727875871473,N
3813,0.009397494609117138,N
3814,0.011867976373947172,N
3815,0.014702958245794385,N
3816,0.01780432617872162,N
3817,0.021025299278266647,N
3818,0.024175365156359926,N
3819,0.027029915941994692,N
3820,0.029344133681271218,N
3821,0.030870241447806916,N
3822,0.0313768617024469,A
3823,0.030668943724313395,N
3824,0.028606568523845577,N
3825,0.025120933483695998,N
3826,0.020225966879943335,N
3827,0.01402431622847145,N
3828,0.0067068726305650125,N
3829,-0.0014544957065263913,N
3830,-0.010120763060099389,N
3831,-0.01890530878032683,N
3832,-0.02739788315001607,N
3833,-0.035191200994115115,N
3834,-0.04190809010468261,N
3835,-0.04722699600917573,N
3836,-0.05090371294399002,N
3837,-0.052787482315406774,N
3838,-0.05283006428156246,N
3839,-0.05108700915905004,N
3840,-0.04771107173642842,N
3841,-0.04293844463154109,N
3842,-0.0370691514952394,N
3843,-0.030443458145630965,N
3844,-0.023416470282933793,N
3845,-0.01633316141169204,N
3846,-0.009505918811711886,N
3847,-0.003196341905697366,N
3848,0.0023974726662762346,N
3849,0.007147510811761748,N
3850,0.010996243629680477,N
3851,0.013951373975130535,N
3852,0.016075912559012005,N
3853,0.017474897123374876,N
3854,0.018280241631665594,N
3855,0.01863522315956356,N
3856,0.018679999806476926,N
3857,0.018539329691501145,N
3858,0.018313357259141513,N
3859,0.018071977404846763,N
3860,0.01785291169778309,N
3861,0.017663269105552333,N
3862,0.017484052211234655,N
3863,0.017276841198240706,N
3864,0.016991762022831782,N
3865,0.01657582364986969,N
3866,0.015980776569440747,N
3867,0.0151697771332627,N
3868,0.014122315353292985,N
3869,0.012837059107285236,N
3870,0.011332474933118935,N
3871,0.009645298458649958,N
3872,0.007827133659584422,N
3873,0.005939637063229049,N
3874,0.004048866884654263,N
3875,0.0022194343346909075,N
3876,0.000509083222990669,N
3877,-0.001035750938030779,N
3878,-0.002382980895263586,N
3879,-0.0035162546985802886,N
3880,-0.00443462704386752,N
3881,-0.005150641254078057,N
3882,-0.005687118998377751,N
3883,-0.006073088679844147,N
3884,-0.006339363255184566,N
3885,-0.006514294621935778,N
3886,-0.006620186624855027,N
3887,-0.006670753984278808,N
3888,-0.006669886492472718,N
3889,-0.006611832737581585,N
3890,-0.006482768716461574,N
3891,-0.006263574493882417,N
3892,-0.005933514370603301,N
3893,-0.005474409138210011,N
3894,-0.00487481183000143,N
3895,-0.004133665102441985,N
3896,-0.003262943843373381,N
3897,-0.002288878002685255,N
3898,-0.0012515034199440916,N
3899,-0.00020248649412310592,N
3900,0.0007986148687335574,N
3901,0.0016892903349998282,N
3902,0.0024096985573243516,N
3903,0.0029083676323577268,N
3904,0.003147361933033228,N
3905,0.0031063659627505033,N
3906,0.0027852594810876988,N
3907,0.0022049230930355204,N
3908,0.001406197165268491,N
3909,0.0004470968564817676,N
3910,-0.0006014563947428862,N
3911,-0.0016610045601839368,N
3912,-0.0026515623731671297,N
3913,-0.0034977692275832296,N
3914,-0.004134689622853923,N
3915,-0.004512803787424453,N
3916,-0.004601794419453805,N
3917,-0.004392827345510281,N
3918,-0.003899142460916679,N
3919,-0.0031549115124589835,N
3920,-0.002212468195138612,N
3921,-0.0011381545870843748,N
3922,-7.137559897658885e-06,N
3923,0.0011023826097725823,N
3924,0.002115124256496701,N
3925,0.002964400939022851,N
3926,0.003597120020587162,N
3927,0.003977745570966135,N
3928,0.004090924345090214,N
3929,0.003942549299636959,N
3930,0.003559136811113341,N
3931,0.0029855201634145863,N
3932,0.0022810035205972764,N
3933,0.001514263171702124,N
3934,0.0007574098307983965,N
3935,7.972042643691658e-05,N
3936,-0.0004584043529131828,N
3937,-0.0008107088897720847,N
3938,-0.0009490966629587377,N
3939,-0.0008660265798157329,N
3940,-0.0005750843644100562,N
3941,-0.0001096962744212776,N
3942,0.00047987398339285225,N
3943,0.0011309508315524104,N
3944,0.001773883171838738,N
3945,0.0023380082955701182,N
3946,0.002757637476007347,N
3947,0.0029775789397165943,N
3948,0.002957769122768295,N
3949,0.002676661143533737,N
3950,0.002133115213043509,N
3951,0.001346649134466621,N
3952,0.0003560369443520087,N
3953,-0.0007836163812950587,N
3954,-0.00200505977819342,N
3955,-0.0032339627597682357,N
3956,-0.004394415766029924,N
3957,-0.005414399630138386,N
3958,-0.006230795426170027,N
3959,-0.006793582231256309,N
3960,-0.007068969752296044,N
3961,-0.007041317651057189,N
3962,-0.006713789106820872,N
3963,-0.006107762825008419,N
3964,-0.00526108327080455,N
3965,-0.0042252703994590714,N
3966,-0.0030618488348752265,N
3967,-0.001838001180794841,N
3968,-0.0006218045158481034,N
3969,0.0005226296302243879,N
3970,0.001539734736420651,N
3971,0.002386379022791667,N
3972,0.003034671905178464,N
3973,0.003473371840634401,N
3974,0.003707719348272709,N
3975,0.0037577001587164476,N
3976,0.0036549374589539777,N
3977,0.0034385867731207332,N
3978,0.003150731726273279,N
3979,0.0028318317724771165,N
3980,0.0025167469871928564,N
3981,0.002231768510127319,N
3982,0.001992935110403404,N
3983,0.0018057420649883677,N
3984,0.001666174540493344,N
3985,0.0015628441543832235,N
3986,0.001479886291793951,N
3987,0.0014001959704789942,N
3988,0.0013085514214227186,N
3989,0.001194204740292215,N
3990,0.0010526074149503951,N
3991,0.0008860730595447589,N
3992,0.0007033379219125294,N
3993,0.0005181355511572068,N
3994,0.00034703243261488277,N
3995,0.00020685971948175872,N
3996,0.00011211298255734098,N
3997,7.267568212963327e-05,N
3998,9.215929996837869e-05,N
3999,0.00016705746865901237,N
4000,0.00028680107508458606,N
4001,0.0004346929172821082,N
4002,0.0005896052619058038,N
4003,0.0007282476732604395,N
4004,0.0008277588633076145,N
4005,0.0008683461146691936,N
4006,0.0008356888596618105,N
4007,0.0007228395516182016,N
4008,0.0005313966809815019,N
4009,0.0002717925146406816,N
4010,-3.737147803507097e-05,N
4011,-0.0003709045888556105,N
4012,-0.0006993812813946307,N
4013,-0.0009920393958904614,N
4014,-0.0012199274145246553,N
4015,-0.0013589741389316708,N
4016,-0.001392656796994398,N
4017,-0.0013139801710663095,N
4018,-0.0011265459498957227,N
4019,-0.0008445807737517658,N
4020,-0.0004918937884647434,N
4021,-9.984013453967068e-05,N
4022,0.00029553347217239873,N
4023,0.0006568993310651277,N
4024,0.0009492899925298934,N
4025,0.0011436103286171324,N
4026,0.0012196626307228418,N
4027,0.0011683676783583532,N
4028,0.0009929403950972456,N
4029,0.0007088805645979622,N
4030,0.00034275569855135075,N
4031,-7.01275259761018e-05,N
4032,-0.0004889553367350636,N
4033,-0.0008712398007133623,N
4034,-0.0011768817834694066,N
4035,-0.0013720619412943196,N
4036,-0.0014325704823907118,N
4037,-0.0013462421942890793,N
4038,-0.001114254459339715,N
4039,-0.0007511619196870269,N
4040,-0.00028366992258786007,N
