Elapsed time,ECG,Abdomen_1,Abdomen_2,Abdomen_3,Abdomen_4,Abdomen_5
'0:00.000',-0.041,0.393,-0.29,0.249,-0.192,0.791
'0:00.001',-0.072,0.578,-0.412,0.358,-0.287,1.112
'0:00.002',-0.076,0.679,-0.479,0.415,-0.343,1.279
'0:00.003',-0.09,0.718,-0.504,0.433,-0.37,1.334
'0:00.004',-0.135,0.718,-0.506,0.431,-0.377,1.324
'0:00.005',-0.196,0.702,-0.496,0.418,-0.373,1.287
'0:00.006',-0.243,0.682,-0.482,0.404,-0.366,1.247
'0:00.007',-0.267,0.665,-0.47,0.396,-0.356,1.217
'0:00.008',-0.28,0.653,-0.457,0.393,-0.343,1.2
'0:00.009',-0.294,0.644,-0.447,0.394,-0.331,1.195
'0:00.010',-0.331,0.638,-0.44,0.397,-0.319,1.196
'0:00.011',-0.391,0.633,-0.435,0.4,-0.309,1.201
'0:00.012',-0.439,0.628,-0.43,0.401,-0.302,1.203
'0:00.013',-0.447,0.625,-0.427,0.401,-0.299,1.205
'0:00.014',-0.421,0.622,-0.423,0.399,-0.296,1.202
'0:00.015',-0.377,0.622,-0.42,0.396,-0.295,1.196
'0:00.016',-0.335,0.621,-0.418,0.391,-0.296,1.186
'0:00.017',-0.312,0.619,-0.418,0.384,-0.299,1.172
'0:00.018',-0.317,0.616,-0.421,0.376,-0.304,1.155
'0:00.019',-0.337,0.614,-0.423,0.367,-0.31,1.136
'0:00.020',-0.356,0.611,-0.424,0.358,-0.317,1.115
'0:00.021',-0.362,0.61,-0.425,0.35,-0.324,1.093
'0:00.022',-0.356,0.608,-0.425,0.342,-0.33,1.073
'0:00.023',-0.354,0.606,-0.424,0.336,-0.334,1.056
'0:00.024',-0.359,0.602,-0.422,0.331,-0.337,1.04
'0:00.025',-0.371,0.598,-0.419,0.328,-0.337,1.028
'0:00.026',-0.372,0.595,-0.415,0.328,-0.333,1.02
'0:00.027',-0.373,0.593,-0.408,0.33,-0.327,1.016
'0:00.028',-0.379,0.592,-0.4,0.334,-0.317,1.016
'0:00.029',-0.384,0.592,-0.391,0.339,-0.305,1.021
'0:00.030',-0.385,0.59,-0.383,0.346,-0.292,1.029
'0:00.031',-0.397,0.587,-0.376,0.35,-0.281,1.037
'0:00.032',-0.408,0.583,-0.371,0.353,-0.272,1.044
'0:00.033',-0.409,0.58,-0.367,0.355,-0.264,1.049
'0:00.034',-0.401,0.575,-0.364,0.355,-0.259,1.051
'0:00.035',-0.391,0.571,-0.361,0.354,-0.257,1.049
'0:00.036',-0.388,0.567,-0.361,0.35,-0.257,1.044
'0:00.037',-0.384,0.562,-0.362,0.344,-0.261,1.032
'0:00.038',-0.382,0.559,-0.364,0.335,-0.267,1.017
'0:00.039',-0.387,0.555,-0.367,0.325,-0.275,0.997
'0:00.040',-0.392,0.553,-0.369,0.316,-0.286,0.976
'0:00.041',-0.391,0.552,-0.369,0.307,-0.295,0.953
'0:00.042',-0.394,0.549,-0.369,0.3,-0.302,0.932
'0:00.043',-0.393,0.547,-0.369,0.295,-0.307,0.914
'0:00.044',-0.398,0.542,-0.367,0.29,-0.31,0.9
'0:00.045',-0.407,0.537,-0.366,0.288,-0.309,0.89
'0:00.046',-0.41,0.533,-0.364,0.287,-0.305,0.884
'0:00.047',-0.41,0.531,-0.359,0.289,-0.298,0.882
'0:00.048',-0.409,0.53,-0.352,0.293,-0.287,0.885
'0:00.049',-0.408,0.529,-0.344,0.299,-0.275,0.891
'0:00.050',-0.41,0.526,-0.336,0.305,-0.261,0.9
'0:00.051',-0.418,0.523,-0.329,0.309,-0.249,0.909
'0:00.052',-0.422,0.521,-0.325,0.313,-0.24,0.917
'0:00.053',-0.425,0.517,-0.321,0.314,-0.232,0.923
'0:00.054',-0.426,0.516,-0.316,0.315,-0.228,0.926
'0:00.055',-0.427,0.514,-0.313,0.314,-0.226,0.926
'0:00.056',-0.436,0.514,-0.312,0.31,-0.226,0.919
'0:00.057',-0.436,0.513,-0.312,0.305,-0.229,0.908
'0:00.058',-0.431,0.512,-0.315,0.296,-0.237,0.894
'0:00.059',-0.434,0.51,-0.317,0.288,-0.245,0.873
'0:00.060',-0.439,0.51,-0.32,0.279,-0.253,0.853
'0:00.061',-0.435,0.51,-0.32,0.272,-0.261,0.832
'0:00.062',-0.433,0.511,-0.319,0.266,-0.268,0.812
'0:00.063',-0.432,0.51,-0.318,0.262,-0.272,0.795
'0:00.064',-0.427,0.507,-0.317,0.259,-0.274,0.782
'0:00.065',-0.419,0.502,-0.316,0.256,-0.274,0.773
'0:00.066',-0.414,0.496,-0.312,0.256,-0.27,0.768
'0:00.067',-0.417,0.489,-0.307,0.26,-0.262,0.77
'0:00.068',-0.419,0.482,-0.3,0.264,-0.252,0.775
'0:00.069',-0.414,0.475,-0.294,0.271,-0.239,0.784
'0:00.070',-0.411,0.468,-0.288,0.276,-0.227,0.794
'0:00.071',-0.414,0.459,-0.285,0.279,-0.216,0.804
'0:00.072',-0.413,0.45,-0.282,0.281,-0.207,0.811
'0:00.073',-0.414,0.443,-0.281,0.283,-0.199,0.816
'0:00.074',-0.417,0.438,-0.279,0.283,-0.195,0.819
'0:00.075',-0.416,0.433,-0.277,0.283,-0.191,0.817
'0:00.076',-0.414,0.429,-0.276,0.281,-0.191,0.813
'0:00.077',-0.411,0.425,-0.277,0.276,-0.195,0.805
'0:00.078',-0.408,0.42,-0.28,0.27,-0.2,0.792
'0:00.079',-0.41,0.419,-0.283,0.263,-0.208,0.776
'0:00.080',-0.412,0.418,-0.285,0.254,-0.216,0.756
'0:00.081',-0.409,0.419,-0.286,0.248,-0.224,0.738
'0:00.082',-0.406,0.42,-0.286,0.242,-0.231,0.721
'0:00.083',-0.407,0.42,-0.285,0.237,-0.235,0.705
'0:00.084',-0.408,0.419,-0.283,0.234,-0.238,0.692
'0:00.085',-0.412,0.416,-0.281,0.232,-0.238,0.684
'0:00.086',-0.409,0.415,-0.277,0.233,-0.235,0.679
'0:00.087',-0.403,0.413,-0.272,0.236,-0.228,0.681
'0:00.088',-0.402,0.413,-0.264,0.241,-0.219,0.686
'0:00.089',-0.402,0.414,-0.257,0.247,-0.207,0.694
'0:00.090',-0.399,0.414,-0.249,0.253,-0.194,0.704
'0:00.091',-0.404,0.412,-0.243,0.257,-0.183,0.714
'0:00.092',-0.402,0.409,-0.238,0.261,-0.172,0.723
'0:00.093',-0.397,0.408,-0.234,0.263,-0.164,0.728
'0:00.094',-0.392,0.405,-0.232,0.263,-0.16,0.732
'0:00.095',-0.389,0.403,-0.229,0.263,-0.156,0.731
'0:00.096',-0.389,0.401,-0.229,0.259,-0.157,0.726
'0:00.097',-0.392,0.399,-0.233,0.254,-0.161,0.718
'0:00.098',-0.389,0.395,-0.237,0.248,-0.168,0.704
'0:00.099',-0.389,0.391,-0.241,0.239,-0.178,0.687
'0:00.100',-0.391,0.388,-0.246,0.229,-0.189,0.666
'0:00.101',-0.394,0.386,-0.249,0.221,-0.199,0.645
'0:00.102',-0.398,0.384,-0.251,0.214,-0.207,0.626
'0:00.103',-0.401,0.381,-0.253,0.209,-0.213,0.609
'0:00.104',-0.399,0.379,-0.254,0.203,-0.216,0.596
'0:00.105',-0.397,0.376,-0.253,0.201,-0.218,0.586
'0:00.106',-0.392,0.373,-0.25,0.2,-0.216,0.582
'0:00.107',-0.394,0.371,-0.245,0.202,-0.209,0.583
'0:00.108',-0.401,0.369,-0.239,0.207,-0.201,0.589
'0:00.109',-0.401,0.366,-0.232,0.213,-0.188,0.6
'0:00.110',-0.392,0.364,-0.226,0.219,-0.176,0.613
'0:00.111',-0.39,0.359,-0.22,0.225,-0.163,0.627
'0:00.112',-0.392,0.354,-0.217,0.228,-0.153,0.637
'0:00.113',-0.391,0.349,-0.213,0.23,-0.145,0.645
'0:00.114',-0.389,0.346,-0.211,0.23,-0.141,0.648
'0:00.115',-0.387,0.345,-0.21,0.23,-0.139,0.646
'0:00.116',-0.391,0.343,-0.211,0.227,-0.14,0.64
'0:00.117',-0.392,0.341,-0.212,0.221,-0.144,0.63
'0:00.118',-0.389,0.34,-0.214,0.214,-0.151,0.616
'0:00.119',-0.389,0.338,-0.217,0.206,-0.16,0.599
'0:00.120',-0.389,0.337,-0.22,0.198,-0.17,0.58
'0:00.121',-0.384,0.336,-0.221,0.189,-0.18,0.562
'0:00.122',-0.383,0.336,-0.223,0.183,-0.187,0.546
'0:00.123',-0.384,0.334,-0.223,0.178,-0.193,0.531
'0:00.124',-0.385,0.331,-0.223,0.174,-0.196,0.521
'0:00.125',-0.382,0.328,-0.222,0.171,-0.196,0.514
'0:00.126',-0.38,0.324,-0.221,0.171,-0.193,0.511
'0:00.127',-0.379,0.321,-0.217,0.173,-0.187,0.514
'0:00.128',-0.381,0.32,-0.211,0.178,-0.177,0.52
'0:00.129',-0.378,0.319,-0.204,0.185,-0.166,0.531
'0:00.130',-0.375,0.319,-0.197,0.192,-0.154,0.542
'0:00.131',-0.377,0.317,-0.191,0.198,-0.143,0.552
'0:00.132',-0.377,0.315,-0.186,0.203,-0.134,0.562
'0:00.133',-0.378,0.312,-0.182,0.206,-0.127,0.568
'0:00.134',-0.376,0.311,-0.179,0.207,-0.123,0.572
'0:00.135',-0.37,0.311,-0.177,0.207,-0.123,0.571
'0:00.136',-0.364,0.312,-0.176,0.204,-0.123,0.567
'0:00.137',-0.359,0.311,-0.179,0.198,-0.127,0.559
'0:00.138',-0.355,0.31,-0.182,0.19,-0.134,0.546
'0:00.139',-0.356,0.308,-0.187,0.181,-0.144,0.531
'0:00.140',-0.361,0.306,-0.191,0.173,-0.154,0.513
'0:00.141',-0.357,0.306,-0.194,0.166,-0.163,0.495
'0:00.142',-0.351,0.306,-0.195,0.161,-0.171,0.479
'0:00.143',-0.347,0.306,-0.195,0.157,-0.174,0.465
'0:00.144',-0.344,0.304,-0.195,0.155,-0.177,0.454
'0:00.145',-0.344,0.301,-0.194,0.153,-0.177,0.447
'0:00.146',-0.341,0.298,-0.192,0.153,-0.176,0.443
'0:00.147',-0.338,0.295,-0.188,0.155,-0.17,0.445
'0:00.148',-0.34,0.292,-0.184,0.16,-0.161,0.451
'0:00.149',-0.341,0.29,-0.177,0.165,-0.151,0.461
'0:00.150',-0.338,0.287,-0.171,0.171,-0.139,0.473
'0:00.151',-0.337,0.284,-0.164,0.176,-0.128,0.486
'0:00.152',-0.338,0.281,-0.16,0.181,-0.12,0.499
'0:00.153',-0.337,0.278,-0.156,0.183,-0.112,0.508
'0:00.154',-0.338,0.276,-0.154,0.184,-0.107,0.513
'0:00.155',-0.341,0.274,-0.152,0.184,-0.105,0.514
'0:00.156',-0.345,0.274,-0.152,0.181,-0.105,0.511
'0:00.157',-0.347,0.272,-0.156,0.175,-0.109,0.502
'0:00.158',-0.346,0.27,-0.16,0.168,-0.116,0.487
'0:00.159',-0.345,0.268,-0.165,0.16,-0.126,0.47
'0:00.160',-0.34,0.267,-0.168,0.151,-0.137,0.451
'0:00.161',-0.337,0.266,-0.171,0.144,-0.147,0.431
'0:00.162',-0.341,0.266,-0.174,0.138,-0.156,0.415
'0:00.163',-0.347,0.266,-0.174,0.133,-0.161,0.401
'0:00.164',-0.345,0.263,-0.173,0.131,-0.164,0.391
'0:00.165',-0.341,0.262,-0.172,0.129,-0.166,0.386
'0:00.166',-0.336,0.261,-0.168,0.13,-0.163,0.384
'0:00.167',-0.336,0.261,-0.162,0.135,-0.157,0.388
'0:00.168',-0.336,0.261,-0.154,0.14,-0.147,0.396
'0:00.169',-0.333,0.26,-0.146,0.147,-0.137,0.407
'0:00.170',-0.331,0.259,-0.14,0.155,-0.124,0.42
'0:00.171',-0.333,0.257,-0.135,0.16,-0.113,0.431
'0:00.172',-0.331,0.254,-0.13,0.164,-0.103,0.441
'0:00.173',-0.327,0.253,-0.128,0.168,-0.095,0.448
'0:00.174',-0.327,0.252,-0.124,0.171,-0.09,0.452
'0:00.175',-0.326,0.253,-0.123,0.172,-0.087,0.454
'0:00.176',-0.327,0.255,-0.122,0.171,-0.087,0.451
'0:00.177',-0.326,0.255,-0.123,0.167,-0.091,0.443
'0:00.178',-0.324,0.255,-0.126,0.16,-0.097,0.431
'0:00.179',-0.322,0.254,-0.13,0.153,-0.107,0.417
'0:00.180',-0.32,0.254,-0.134,0.144,-0.117,0.399
'0:00.181',-0.317,0.253,-0.136,0.137,-0.127,0.382
'0:00.182',-0.312,0.252,-0.139,0.13,-0.136,0.366
'0:00.183',-0.31,0.249,-0.141,0.124,-0.143,0.354
'0:00.184',-0.309,0.246,-0.141,0.121,-0.146,0.346
'0:00.185',-0.312,0.241,-0.142,0.119,-0.148,0.34
'0:00.186',-0.312,0.237,-0.141,0.118,-0.145,0.339
'0:00.187',-0.312,0.235,-0.138,0.12,-0.14,0.342
'0:00.188',-0.316,0.232,-0.134,0.124,-0.13,0.35
'0:00.189',-0.314,0.23,-0.128,0.131,-0.118,0.361
'0:00.190',-0.309,0.227,-0.124,0.136,-0.107,0.374
'0:00.191',-0.309,0.224,-0.12,0.141,-0.096,0.386
'0:00.192',-0.31,0.221,-0.118,0.146,-0.086,0.398
'0:00.193',-0.307,0.219,-0.115,0.149,-0.078,0.406
'0:00.194',-0.301,0.218,-0.113,0.15,-0.073,0.411
'0:00.195',-0.297,0.217,-0.112,0.149,-0.072,0.411
'0:00.196',-0.3,0.216,-0.114,0.146,-0.074,0.408
'0:00.197',-0.302,0.215,-0.116,0.141,-0.079,0.399
'0:00.198',-0.299,0.212,-0.12,0.135,-0.087,0.387
'0:00.199',-0.304,0.211,-0.123,0.127,-0.098,0.372
'0:00.200',-0.312,0.209,-0.126,0.119,-0.108,0.355
'0:00.201',-0.312,0.21,-0.128,0.113,-0.117,0.339
'0:00.202',-0.311,0.211,-0.13,0.109,-0.123,0.323
'0:00.203',-0.311,0.211,-0.13,0.105,-0.127,0.311
'0:00.204',-0.309,0.212,-0.13,0.102,-0.13,0.302
'0:00.205',-0.309,0.211,-0.128,0.101,-0.128,0.296
'0:00.206',-0.307,0.211,-0.126,0.102,-0.126,0.294
'0:00.207',-0.306,0.211,-0.12,0.105,-0.12,0.297
'0:00.208',-0.309,0.21,-0.115,0.11,-0.112,0.304
'0:00.209',-0.306,0.209,-0.109,0.116,-0.102,0.314
'0:00.210',-0.305,0.208,-0.102,0.122,-0.093,0.326
'0:00.211',-0.312,0.207,-0.097,0.128,-0.083,0.337
'0:00.212',-0.32,0.207,-0.093,0.134,-0.074,0.35
'0:00.213',-0.321,0.208,-0.089,0.138,-0.066,0.359
'0:00.214',-0.316,0.211,-0.084,0.14,-0.061,0.365
'0:00.215',-0.312,0.214,-0.082,0.141,-0.059,0.367
'0:00.216',-0.312,0.216,-0.082,0.139,-0.059,0.365
'0:00.217',-0.309,0.218,-0.084,0.135,-0.063,0.357
'0:00.218',-0.302,0.218,-0.089,0.127,-0.071,0.345
'0:00.219',-0.302,0.218,-0.094,0.12,-0.08,0.331
'0:00.220',-0.305,0.219,-0.098,0.113,-0.089,0.314
'0:00.221',-0.306,0.221,-0.1,0.107,-0.097,0.297
'0:00.222',-0.309,0.223,-0.101,0.103,-0.103,0.283
'0:00.223',-0.312,0.223,-0.101,0.101,-0.107,0.271
'0:00.224',-0.314,0.222,-0.101,0.1,-0.108,0.263
'0:00.225',-0.316,0.221,-0.1,0.1,-0.108,0.259
'0:00.226',-0.312,0.216,-0.098,0.102,-0.105,0.257
'0:00.227',-0.313,0.211,-0.094,0.106,-0.099,0.262
'0:00.228',-0.317,0.206,-0.089,0.112,-0.09,0.269
'0:00.229',-0.311,0.201,-0.083,0.118,-0.081,0.28
'0:00.230',-0.304,0.196,-0.078,0.124,-0.07,0.293
'0:00.231',-0.304,0.189,-0.074,0.129,-0.061,0.305
'0:00.232',-0.309,0.184,-0.072,0.134,-0.052,0.316
'0:00.233',-0.312,0.181,-0.071,0.135,-0.046,0.325
'0:00.234',-0.312,0.178,-0.069,0.136,-0.042,0.329
'0:00.235',-0.31,0.176,-0.07,0.136,-0.042,0.33
'0:00.236',-0.315,0.175,-0.071,0.134,-0.042,0.328
'0:00.237',-0.317,0.173,-0.074,0.13,-0.047,0.321
'0:00.238',-0.313,0.171,-0.078,0.126,-0.054,0.311
'0:00.239',-0.311,0.168,-0.082,0.118,-0.063,0.298
'0:00.240',-0.31,0.168,-0.086,0.112,-0.071,0.283
'0:00.241',-0.307,0.17,-0.087,0.105,-0.08,0.267
'0:00.242',-0.302,0.172,-0.087,0.101,-0.087,0.252
'0:00.243',-0.298,0.175,-0.085,0.096,-0.093,0.241
'0:00.244',-0.3,0.175,-0.084,0.093,-0.096,0.231
'0:00.245',-0.304,0.174,-0.084,0.091,-0.097,0.227
'0:00.246',-0.304,0.173,-0.083,0.092,-0.094,0.226
'0:00.247',-0.304,0.173,-0.08,0.095,-0.09,0.23
'0:00.248',-0.307,0.174,-0.075,0.101,-0.08,0.237
'0:00.249',-0.306,0.175,-0.069,0.107,-0.07,0.25
'0:00.250',-0.299,0.174,-0.065,0.114,-0.058,0.262
'0:00.251',-0.299,0.173,-0.061,0.119,-0.048,0.276
'0:00.252',-0.294,0.171,-0.057,0.124,-0.039,0.288
'0:00.253',-0.286,0.17,-0.056,0.126,-0.032,0.297
'0:00.254',-0.282,0.17,-0.053,0.127,-0.028,0.304
'0:00.255',-0.287,0.17,-0.052,0.127,-0.026,0.306
'0:00.256',-0.289,0.17,-0.053,0.126,-0.027,0.304
'0:00.257',-0.287,0.17,-0.055,0.122,-0.031,0.298
'0:00.258',-0.283,0.17,-0.059,0.116,-0.04,0.288
'0:00.259',-0.284,0.17,-0.062,0.11,-0.05,0.273
'0:00.260',-0.281,0.17,-0.066,0.102,-0.061,0.257
'0:00.261',-0.28,0.171,-0.068,0.097,-0.07,0.24
'0:00.262',-0.28,0.173,-0.069,0.092,-0.077,0.225
'0:00.263',-0.281,0.175,-0.069,0.088,-0.083,0.214
'0:00.264',-0.281,0.175,-0.069,0.086,-0.085,0.205
'0:00.265',-0.279,0.175,-0.067,0.086,-0.085,0.201
'0:00.266',-0.271,0.175,-0.063,0.088,-0.081,0.202
'0:00.267',-0.273,0.176,-0.056,0.094,-0.073,0.208
'0:00.268',-0.281,0.179,-0.046,0.103,-0.061,0.219
'0:00.269',-0.284,0.182,-0.036,0.115,-0.046,0.234
'0:00.270',-0.281,0.185,-0.026,0.126,-0.031,0.25
'0:00.271',-0.277,0.186,-0.018,0.135,-0.017,0.265
'0:00.272',-0.28,0.186,-0.012,0.141,-0.006,0.279
'0:00.273',-0.281,0.185,-0.01,0.145,0.001,0.289
'0:00.274',-0.28,0.185,-0.007,0.147,0.004,0.294
'0:00.275',-0.279,0.185,-0.007,0.146,0.005,0.296
'0:00.276',-0.278,0.185,-0.007,0.142,0.002,0.293
'0:00.277',-0.276,0.184,-0.011,0.138,-0.005,0.286
'0:00.278',-0.273,0.181,-0.017,0.128,-0.015,0.274
'0:00.279',-0.277,0.177,-0.026,0.116,-0.028,0.257
'0:00.280',-0.281,0.171,-0.036,0.102,-0.044,0.237
'0:00.281',-0.278,0.164,-0.047,0.086,-0.062,0.214
'0:00.282',-0.28,0.156,-0.061,0.07,-0.08,0.191
'0:00.283',-0.284,0.145,-0.078,0.053,-0.097,0.169
'0:00.284',-0.288,0.132,-0.094,0.034,-0.115,0.148
'0:00.285',-0.286,0.118,-0.111,0.016,-0.13,0.131
'0:00.286',-0.284,0.104,-0.128,-0.001,-0.144,0.117
'0:00.287',-0.284,0.091,-0.143,-0.015,-0.153,0.11
'0:00.288',-0.284,0.079,-0.155,-0.025,-0.156,0.107
'0:00.289',-0.277,0.068,-0.162,-0.03,-0.154,0.111
'0:00.290',-0.274,0.059,-0.166,-0.029,-0.146,0.121
'0:00.291',-0.276,0.053,-0.165,-0.022,-0.134,0.136
'0:00.292',-0.278,0.051,-0.158,-0.011,-0.118,0.152
'0:00.293',-0.281,0.054,-0.147,0.005,-0.101,0.169
'0:00.294',-0.281,0.063,-0.131,0.023,-0.083,0.185
'0:00.295',-0.278,0.074,-0.114,0.042,-0.066,0.199
'0:00.296',-0.277,0.087,-0.098,0.057,-0.052,0.208
'0:00.297',-0.276,0.1,-0.083,0.07,-0.042,0.214
'0:00.298',-0.277,0.11,-0.072,0.077,-0.037,0.213
'0:00.299',-0.275,0.12,-0.064,0.079,-0.037,0.207
'0:00.300',-0.267,0.127,-0.059,0.081,-0.039,0.198
'0:00.301',-0.261,0.134,-0.054,0.081,-0.044,0.187
'0:00.302',-0.261,0.139,-0.049,0.081,-0.046,0.176
'0:00.303',-0.263,0.145,-0.044,0.082,-0.048,0.168
'0:00.304',-0.257,0.146,-0.039,0.084,-0.048,0.162
'0:00.305',-0.25,0.147,-0.036,0.085,-0.046,0.161
'0:00.306',-0.242,0.147,-0.03,0.088,-0.041,0.162
'0:00.307',-0.241,0.146,-0.025,0.092,-0.035,0.168
'0:00.308',-0.245,0.145,-0.021,0.096,-0.027,0.178
'0:00.309',-0.241,0.143,-0.017,0.101,-0.018,0.19
'0:00.310',-0.236,0.14,-0.015,0.105,-0.009,0.203
'0:00.311',-0.239,0.137,-0.014,0.108,-0.002,0.214
'0:00.312',-0.245,0.134,-0.013,0.11,0.003,0.224
'0:00.313',-0.245,0.133,-0.012,0.11,0.006,0.23
'0:00.314',-0.239,0.132,-0.014,0.107,0.006,0.231
'0:00.315',-0.234,0.131,-0.016,0.104,0.005,0.23
'0:00.316',-0.235,0.129,-0.021,0.098,-0.001,0.225
'0:00.317',-0.234,0.126,-0.026,0.091,-0.009,0.216
'0:00.318',-0.232,0.122,-0.034,0.082,-0.019,0.203
'0:00.319',-0.235,0.12,-0.041,0.074,-0.031,0.189
'0:00.320',-0.234,0.116,-0.047,0.066,-0.043,0.173
'0:00.321',-0.227,0.113,-0.052,0.059,-0.053,0.157
'0:00.322',-0.221,0.111,-0.056,0.053,-0.062,0.142
'0:00.323',-0.222,0.109,-0.061,0.048,-0.069,0.13
'0:00.324',-0.225,0.106,-0.062,0.045,-0.073,0.121
'0:00.325',-0.225,0.104,-0.064,0.042,-0.073,0.117
'0:00.326',-0.226,0.102,-0.064,0.042,-0.07,0.118
'0:00.327',-0.23,0.101,-0.06,0.046,-0.062,0.124
'0:00.328',-0.235,0.102,-0.055,0.052,-0.054,0.133
'0:00.329',-0.23,0.103,-0.048,0.059,-0.042,0.146
'0:00.330',-0.226,0.104,-0.042,0.066,-0.032,0.161
'0:00.331',-0.228,0.104,-0.037,0.071,-0.022,0.174
'0:00.332',-0.227,0.104,-0.034,0.076,-0.012,0.188
'0:00.333',-0.223,0.105,-0.031,0.08,-0.006,0.197
'0:00.334',-0.22,0.107,-0.027,0.084,-0.001,0.204
'0:00.335',-0.218,0.11,-0.026,0.086,0,0.206
'0:00.336',-0.22,0.112,-0.025,0.086,-0.002,0.202
'0:00.337',-0.218,0.113,-0.027,0.082,-0.008,0.194
'0:00.338',-0.212,0.112,-0.031,0.075,-0.016,0.181
'0:00.339',-0.211,0.11,-0.037,0.068,-0.029,0.164
'0:00.340',-0.213,0.109,-0.042,0.059,-0.041,0.146
'0:00.341',-0.214,0.107,-0.047,0.051,-0.051,0.129
'0:00.342',-0.218,0.106,-0.051,0.046,-0.061,0.115
'0:00.343',-0.221,0.106,-0.053,0.042,-0.067,0.105
'0:00.344',-0.22,0.104,-0.053,0.041,-0.07,0.1
'0:00.345',-0.215,0.103,-0.052,0.042,-0.07,0.098
'0:00.346',-0.212,0.102,-0.049,0.045,-0.067,0.1
'0:00.347',-0.214,0.102,-0.045,0.051,-0.06,0.107
'0:00.348',-0.212,0.101,-0.039,0.056,-0.051,0.116
'0:00.349',-0.203,0.1,-0.034,0.063,-0.039,0.13
'0:00.350',-0.197,0.097,-0.031,0.07,-0.027,0.144
'0:00.351',-0.201,0.093,-0.029,0.073,-0.017,0.16
'0:00.352',-0.198,0.088,-0.029,0.075,-0.008,0.171
'0:00.353',-0.192,0.083,-0.029,0.075,-0.002,0.179
'0:00.354',-0.191,0.081,-0.031,0.075,0.001,0.184
'0:00.355',-0.196,0.079,-0.032,0.073,0.001,0.184
'0:00.356',-0.203,0.077,-0.034,0.071,-0.002,0.179
'0:00.357',-0.207,0.077,-0.037,0.066,-0.008,0.172
'0:00.358',-0.207,0.077,-0.041,0.06,-0.018,0.16
'0:00.359',-0.218,0.078,-0.044,0.053,-0.028,0.144
'0:00.360',-0.228,0.081,-0.047,0.046,-0.038,0.128
'0:00.361',-0.228,0.085,-0.049,0.039,-0.048,0.111
'0:00.362',-0.225,0.09,-0.048,0.034,-0.056,0.095
'0:00.363',-0.22,0.092,-0.049,0.031,-0.061,0.083
'0:00.364',-0.22,0.092,-0.05,0.027,-0.066,0.074
'0:00.365',-0.225,0.091,-0.051,0.026,-0.068,0.068
'0:00.366',-0.227,0.09,-0.051,0.026,-0.066,0.069
'0:00.367',-0.226,0.089,-0.049,0.028,-0.062,0.073
'0:00.368',-0.232,0.09,-0.044,0.033,-0.056,0.081
'0:00.369',-0.241,0.091,-0.038,0.039,-0.045,0.092
'0:00.370',-0.244,0.093,-0.031,0.047,-0.035,0.105
'0:00.371',-0.247,0.093,-0.026,0.053,-0.026,0.117
'0:00.372',-0.247,0.091,-0.022,0.058,-0.019,0.127
'0:00.373',-0.25,0.091,-0.021,0.061,-0.014,0.135
'0:00.374',-0.256,0.091,-0.019,0.063,-0.011,0.139
'0:00.375',-0.259,0.09,-0.018,0.063,-0.012,0.141
'0:00.376',-0.263,0.091,-0.018,0.061,-0.016,0.138
'0:00.377',-0.267,0.091,-0.02,0.057,-0.021,0.132
'0:00.378',-0.268,0.093,-0.023,0.052,-0.029,0.122
'0:00.379',-0.27,0.095,-0.026,0.045,-0.038,0.11
'0:00.380',-0.272,0.097,-0.028,0.038,-0.048,0.096
'0:00.381',-0.273,0.1,-0.03,0.034,-0.056,0.081
'0:00.382',-0.274,0.102,-0.032,0.03,-0.062,0.068
'0:00.383',-0.272,0.104,-0.032,0.027,-0.067,0.058
'0:00.384',-0.275,0.104,-0.032,0.025,-0.068,0.052
'0:00.385',-0.281,0.104,-0.032,0.025,-0.068,0.049
'0:00.386',-0.282,0.104,-0.03,0.026,-0.066,0.051
'0:00.387',-0.28,0.104,-0.026,0.03,-0.06,0.056
'0:00.388',-0.278,0.105,-0.022,0.036,-0.051,0.064
'0:00.389',-0.277,0.106,-0.017,0.042,-0.042,0.077
'0:00.390',-0.278,0.107,-0.012,0.05,-0.032,0.09
'0:00.391',-0.278,0.105,-0.01,0.056,-0.022,0.105
'0:00.392',-0.272,0.103,-0.01,0.06,-0.016,0.116
'0:00.393',-0.265,0.101,-0.01,0.063,-0.011,0.124
'0:00.394',-0.263,0.1,-0.011,0.064,-0.009,0.128
'0:00.395',-0.266,0.099,-0.012,0.063,-0.01,0.129
'0:00.396',-0.266,0.096,-0.015,0.059,-0.014,0.124
'0:00.397',-0.258,0.092,-0.02,0.054,-0.02,0.115
'0:00.398',-0.255,0.087,-0.025,0.048,-0.028,0.105
'0:00.399',-0.264,0.082,-0.03,0.041,-0.038,0.09
'0:00.400',-0.267,0.077,-0.035,0.033,-0.049,0.074
'0:00.401',-0.262,0.075,-0.037,0.028,-0.057,0.06
'0:00.402',-0.26,0.074,-0.038,0.025,-0.064,0.046
'0:00.403',-0.267,0.074,-0.039,0.022,-0.068,0.035
'0:00.404',-0.27,0.074,-0.039,0.021,-0.07,0.028
'0:00.405',-0.266,0.074,-0.039,0.021,-0.069,0.025
'0:00.406',-0.26,0.075,-0.037,0.025,-0.066,0.026
'0:00.407',-0.256,0.076,-0.032,0.03,-0.059,0.032
'0:00.408',-0.256,0.077,-0.027,0.036,-0.05,0.041
'0:00.409',-0.258,0.077,-0.022,0.045,-0.038,0.054
'0:00.410',-0.262,0.077,-0.018,0.051,-0.028,0.068
'0:00.411',-0.266,0.076,-0.015,0.057,-0.018,0.083
'0:00.412',-0.267,0.074,-0.012,0.06,-0.011,0.096
'0:00.413',-0.269,0.075,-0.011,0.062,-0.006,0.107
'0:00.414',-0.266,0.076,-0.01,0.063,-0.003,0.113
'0:00.415',-0.265,0.078,-0.011,0.06,-0.003,0.116
'0:00.416',-0.267,0.08,-0.013,0.058,-0.007,0.115
'0:00.417',-0.266,0.081,-0.017,0.051,-0.013,0.108
'0:00.418',-0.254,0.083,-0.022,0.044,-0.022,0.097
'0:00.419',-0.246,0.084,-0.027,0.036,-0.032,0.083
'0:00.420',-0.249,0.086,-0.031,0.03,-0.042,0.066
'0:00.421',-0.252,0.09,-0.033,0.024,-0.051,0.05
'0:00.422',-0.256,0.093,-0.034,0.019,-0.057,0.036
'0:00.423',-0.254,0.096,-0.035,0.016,-0.062,0.025
'0:00.424',-0.251,0.096,-0.035,0.013,-0.066,0.018
'0:00.425',-0.25,0.094,-0.035,0.012,-0.067,0.015
'0:00.426',-0.245,0.09,-0.036,0.012,-0.066,0.015
'0:00.427',-0.242,0.084,-0.034,0.014,-0.062,0.019
'0:00.428',-0.242,0.079,-0.031,0.018,-0.055,0.027
'0:00.429',-0.235,0.073,-0.028,0.024,-0.046,0.039
'0:00.430',-0.229,0.067,-0.025,0.029,-0.036,0.052
'0:00.431',-0.233,0.06,-0.022,0.035,-0.026,0.065
'0:00.432',-0.24,0.054,-0.021,0.038,-0.019,0.076
'0:00.433',-0.242,0.05,-0.02,0.041,-0.013,0.085
'0:00.434',-0.241,0.05,-0.019,0.043,-0.009,0.091
'0:00.435',-0.239,0.051,-0.018,0.044,-0.007,0.094
'0:00.436',-0.241,0.055,-0.017,0.044,-0.008,0.093
'0:00.437',-0.24,0.059,-0.018,0.04,-0.013,0.087
'0:00.438',-0.235,0.063,-0.021,0.035,-0.021,0.076
'0:00.439',-0.231,0.066,-0.026,0.028,-0.031,0.061
'0:00.440',-0.229,0.066,-0.031,0.019,-0.044,0.043
'0:00.441',-0.224,0.066,-0.036,0.01,-0.057,0.023
'0:00.442',-0.217,0.066,-0.042,0,-0.07,0.003
'0:00.443',-0.21,0.061,-0.048,-0.009,-0.081,-0.015
'0:00.444',-0.197,0.055,-0.056,-0.017,-0.091,-0.03
'0:00.445',-0.183,0.046,-0.063,-0.026,-0.1,-0.042
'0:00.446',-0.167,0.036,-0.07,-0.033,-0.107,-0.051
'0:00.447',-0.156,0.024,-0.077,-0.038,-0.111,-0.054
'0:00.448',-0.145,0.011,-0.083,-0.04,-0.112,-0.052
'0:00.449',-0.126,-0.002,-0.088,-0.042,-0.11,-0.044
'0:00.450',-0.103,-0.015,-0.093,-0.043,-0.105,-0.034
'0:00.451',-0.088,-0.028,-0.098,-0.045,-0.1,-0.022
'0:00.452',-0.071,-0.041,-0.105,-0.046,-0.096,-0.012
'0:00.453',-0.044,-0.05,-0.109,-0.048,-0.093,-0.002
'0:00.454',-0.006,-0.058,-0.114,-0.051,-0.093,0.005
'0:00.455',0.037,-0.065,-0.12,-0.054,-0.093,0.01
'0:00.456',0.077,-0.072,-0.126,-0.059,-0.094,0.013
'0:00.457',0.121,-0.079,-0.135,-0.064,-0.096,0.016
'0:00.458',0.181,-0.086,-0.143,-0.068,-0.097,0.02
'0:00.459',0.245,-0.093,-0.15,-0.073,-0.096,0.026
'0:00.460',0.316,-0.099,-0.156,-0.074,-0.09,0.036
'0:00.461',0.389,-0.104,-0.16,-0.073,-0.082,0.051
'0:00.462',0.457,-0.109,-0.161,-0.069,-0.069,0.073
'0:00.463',0.517,-0.115,-0.161,-0.063,-0.052,0.101
'0:00.464',0.569,-0.122,-0.161,-0.053,-0.029,0.136
'0:00.465',0.613,-0.129,-0.159,-0.041,-0.002,0.176
'0:00.466',0.653,-0.133,-0.152,-0.024,0.029,0.222
'0:00.467',0.687,-0.135,-0.142,-0.003,0.065,0.274
'0:00.468',0.724,-0.133,-0.128,0.021,0.105,0.328
'0:00.469',0.766,-0.129,-0.113,0.048,0.144,0.382
'0:00.470',0.8,-0.123,-0.096,0.074,0.184,0.435
'0:00.471',0.83,-0.117,-0.079,0.098,0.219,0.482
'0:00.472',0.864,-0.109,-0.063,0.119,0.25,0.522
'0:00.473',0.893,-0.1,-0.048,0.137,0.275,0.553
'0:00.474',0.911,-0.088,-0.036,0.151,0.291,0.574
'0:00.475',0.916,-0.078,-0.027,0.16,0.299,0.584
'0:00.476',0.911,-0.068,-0.022,0.163,0.299,0.582
'0:00.477',0.896,-0.061,-0.021,0.161,0.291,0.57
'0:00.478',0.866,-0.054,-0.022,0.155,0.278,0.549
'0:00.479',0.816,-0.047,-0.024,0.146,0.261,0.521
'0:00.480',0.751,-0.038,-0.023,0.138,0.241,0.487
'0:00.481',0.681,-0.026,-0.021,0.131,0.22,0.45
'0:00.482',0.604,-0.011,-0.016,0.124,0.201,0.41
'0:00.483',0.519,0.006,-0.008,0.12,0.182,0.369
'0:00.484',0.411,0.024,0.002,0.116,0.163,0.329
'0:00.485',0.278,0.043,0.014,0.115,0.147,0.291
'0:00.486',0.155,0.065,0.029,0.117,0.134,0.257
'0:00.487',0.067,0.088,0.048,0.122,0.126,0.231
'0:00.488',0.005,0.113,0.068,0.131,0.124,0.211
'0:00.489',-0.057,0.136,0.088,0.142,0.124,0.199
'0:00.490',-0.119,0.154,0.105,0.151,0.126,0.192
'0:00.491',-0.177,0.168,0.116,0.158,0.127,0.19
'0:00.492',-0.232,0.176,0.123,0.16,0.127,0.187
'0:00.493',-0.286,0.18,0.124,0.157,0.123,0.183
'0:00.494',-0.344,0.18,0.12,0.152,0.116,0.175
'0:00.495',-0.399,0.176,0.113,0.142,0.106,0.165
'0:00.496',-0.441,0.17,0.103,0.131,0.093,0.151
'0:00.497',-0.464,0.161,0.09,0.116,0.076,0.133
'0:00.498',-0.468,0.15,0.075,0.099,0.058,0.112
'0:00.499',-0.467,0.138,0.058,0.081,0.037,0.09
'0:00.500',-0.476,0.125,0.042,0.061,0.016,0.065
'0:00.501',-0.479,0.112,0.026,0.044,-0.003,0.042
'0:00.502',-0.47,0.098,0.012,0.029,-0.02,0.021
'0:00.503',-0.439,0.084,0.001,0.017,-0.033,0.003
'0:00.504',-0.389,0.071,-0.01,0.007,-0.042,-0.011
'0:00.505',-0.333,0.058,-0.017,0.001,-0.049,-0.019
'0:00.506',-0.284,0.047,-0.021,-0.002,-0.05,-0.021
'0:00.507',-0.249,0.038,-0.022,-0.001,-0.048,-0.02
'0:00.508',-0.227,0.032,-0.021,0.002,-0.043,-0.013
'0:00.509',-0.214,0.026,-0.02,0.007,-0.035,-0.002
'0:00.510',-0.206,0.021,-0.017,0.011,-0.028,0.01
'0:00.511',-0.202,0.017,-0.017,0.015,-0.021,0.021
'0:00.512',-0.196,0.012,-0.016,0.017,-0.015,0.032
'0:00.513',-0.183,0.008,-0.017,0.017,-0.01,0.041
'0:00.514',-0.172,0.004,-0.018,0.018,-0.008,0.046
'0:00.515',-0.17,0.003,-0.02,0.018,-0.009,0.047
'0:00.516',-0.182,0.002,-0.021,0.016,-0.01,0.046
'0:00.517',-0.197,0.003,-0.026,0.013,-0.015,0.04
'0:00.518',-0.204,0.004,-0.029,0.008,-0.022,0.029
'0:00.519',-0.215,0.007,-0.032,0.002,-0.031,0.016
'0:00.520',-0.226,0.011,-0.035,-0.005,-0.042,0.001
'0:00.521',-0.232,0.016,-0.036,-0.01,-0.051,-0.015
'0:00.522',-0.239,0.021,-0.036,-0.012,-0.058,-0.027
'0:00.523',-0.241,0.025,-0.036,-0.014,-0.062,-0.034
'0:00.524',-0.237,0.026,-0.034,-0.015,-0.064,-0.04
'0:00.525',-0.232,0.026,-0.034,-0.014,-0.064,-0.041
'0:00.526',-0.226,0.026,-0.032,-0.014,-0.062,-0.04
'0:00.527',-0.224,0.027,-0.029,-0.011,-0.058,-0.035
'0:00.528',-0.228,0.027,-0.024,-0.007,-0.05,-0.027
'0:00.529',-0.232,0.028,-0.02,-0.002,-0.042,-0.016
'0:00.530',-0.237,0.028,-0.014,0.003,-0.033,-0.002
'0:00.531',-0.243,0.027,-0.01,0.009,-0.025,0.01
'0:00.532',-0.243,0.025,-0.006,0.013,-0.018,0.02
'0:00.533',-0.237,0.024,-0.006,0.017,-0.012,0.028
'0:00.534',-0.231,0.026,-0.006,0.019,-0.009,0.034
'0:00.535',-0.232,0.026,-0.007,0.021,-0.008,0.036
'0:00.536',-0.234,0.027,-0.009,0.019,-0.01,0.034
'0:00.537',-0.227,0.028,-0.013,0.015,-0.015,0.029
'0:00.538',-0.226,0.028,-0.018,0.01,-0.023,0.02
'0:00.539',-0.23,0.028,-0.024,0.003,-0.033,0.007
'0:00.540',-0.23,0.029,-0.027,-0.005,-0.043,-0.006
'0:00.541',-0.222,0.031,-0.031,-0.01,-0.052,-0.02
'0:00.542',-0.22,0.033,-0.032,-0.015,-0.059,-0.032
'0:00.543',-0.22,0.034,-0.034,-0.017,-0.063,-0.04
'0:00.544',-0.222,0.033,-0.034,-0.02,-0.065,-0.045
'0:00.545',-0.22,0.032,-0.033,-0.02,-0.065,-0.047
'0:00.546',-0.219,0.03,-0.032,-0.019,-0.062,-0.044
'0:00.547',-0.218,0.029,-0.027,-0.013,-0.056,-0.038
'0:00.548',-0.216,0.03,-0.022,-0.006,-0.047,-0.027
'0:00.549',-0.21,0.029,-0.017,0.003,-0.037,-0.014
'0:00.550',-0.206,0.029,-0.012,0.01,-0.025,0.002
'0:00.551',-0.214,0.028,-0.01,0.015,-0.016,0.017
'0:00.552',-0.22,0.026,-0.006,0.019,-0.007,0.032
'0:00.553',-0.22,0.026,-0.004,0.022,-0.001,0.042
'0:00.554',-0.225,0.027,-0.001,0.024,0.003,0.049
'0:00.555',-0.226,0.029,0,0.025,0.005,0.051
'0:00.556',-0.227,0.032,0,0.023,0.002,0.047
'0:00.557',-0.228,0.034,-0.003,0.019,-0.003,0.038
'0:00.558',-0.225,0.035,-0.007,0.013,-0.011,0.026
'0:00.559',-0.225,0.036,-0.012,0.006,-0.021,0.011
'0:00.560',-0.226,0.038,-0.016,-0.001,-0.031,-0.005
'0:00.561',-0.225,0.04,-0.02,-0.007,-0.041,-0.02
'0:00.562',-0.222,0.041,-0.021,-0.011,-0.048,-0.031
'0:00.563',-0.223,0.042,-0.022,-0.014,-0.053,-0.041
'0:00.564',-0.222,0.041,-0.022,-0.016,-0.056,-0.046
'0:00.565',-0.217,0.04,-0.023,-0.017,-0.058,-0.049
'0:00.566',-0.211,0.039,-0.022,-0.016,-0.055,-0.047
'0:00.567',-0.208,0.038,-0.02,-0.012,-0.05,-0.042
'0:00.568',-0.213,0.038,-0.016,-0.007,-0.041,-0.033
'0:00.569',-0.216,0.038,-0.011,-0.001,-0.032,-0.021
'0:00.570',-0.206,0.036,-0.006,0.006,-0.021,-0.007
'0:00.571',-0.196,0.035,-0.003,0.011,-0.011,0.007
'0:00.572',-0.193,0.033,0,0.015,-0.002,0.02
'0:00.573',-0.194,0.031,0.001,0.018,0.005,0.031
'0:00.574',-0.194,0.031,0.002,0.021,0.008,0.038
'0:00.575',-0.192,0.031,0.001,0.021,0.009,0.042
'0:00.576',-0.191,0.031,0,0.02,0.007,0.04
'0:00.577',-0.19,0.031,-0.005,0.016,0.002,0.034
'0:00.578',-0.187,0.03,-0.01,0.009,-0.007,0.024
'0:00.579',-0.182,0.029,-0.015,0.001,-0.018,0.011
'0:00.580',-0.181,0.029,-0.02,-0.008,-0.029,-0.005
'0:00.581',-0.18,0.031,-0.024,-0.014,-0.039,-0.02
'0:00.582',-0.185,0.032,-0.025,-0.019,-0.048,-0.032
'0:00.583',-0.189,0.032,-0.026,-0.022,-0.052,-0.042
'0:00.584',-0.188,0.033,-0.026,-0.023,-0.054,-0.049
'0:00.585',-0.187,0.034,-0.025,-0.021,-0.054,-0.051
'0:00.586',-0.189,0.035,-0.021,-0.017,-0.05,-0.048
'0:00.587',-0.195,0.035,-0.017,-0.011,-0.041,-0.041
'0:00.588',-0.197,0.036,-0.011,-0.005,-0.032,-0.029
'0:00.589',-0.195,0.036,-0.005,0.003,-0.019,-0.015
'0:00.590',-0.196,0.035,-0.001,0.01,-0.008,0
'0:00.591',-0.196,0.033,0.003,0.016,0.001,0.013
'0:00.592',-0.188,0.032,0.005,0.021,0.008,0.024
'0:00.593',-0.187,0.029,0.006,0.025,0.011,0.032
'0:00.594',-0.19,0.028,0.006,0.026,0.012,0.038
'0:00.595',-0.186,0.028,0.005,0.026,0.01,0.039
'0:00.596',-0.182,0.028,0.001,0.023,0.006,0.036
'0:00.597',-0.18,0.028,-0.003,0.018,-0.001,0.029
'0:00.598',-0.177,0.028,-0.008,0.011,-0.009,0.018
'0:00.599',-0.179,0.03,-0.012,0.004,-0.019,0.005
'0:00.600',-0.18,0.032,-0.017,-0.003,-0.029,-0.011
'0:00.601',-0.172,0.035,-0.02,-0.01,-0.038,-0.025
'0:00.602',-0.171,0.039,-0.021,-0.013,-0.044,-0.038
'0:00.603',-0.172,0.042,-0.021,-0.016,-0.048,-0.047
'0:00.604',-0.17,0.043,-0.02,-0.017,-0.05,-0.054
'0:00.605',-0.166,0.045,-0.019,-0.017,-0.05,-0.056
'0:00.606',-0.166,0.046,-0.016,-0.016,-0.047,-0.054
'0:00.607',-0.169,0.046,-0.012,-0.011,-0.04,-0.047
'0:00.608',-0.173,0.046,-0.006,-0.005,-0.032,-0.036
'0:00.609',-0.174,0.046,-0.001,0.003,-0.021,-0.022
'0:00.610',-0.171,0.041,0.005,0.011,-0.009,-0.006
'0:00.611',-0.176,0.036,0.007,0.017,0.002,0.011
'0:00.612',-0.178,0.031,0.01,0.023,0.011,0.025
'0:00.613',-0.18,0.025,0.01,0.026,0.018,0.036
'0:00.614',-0.177,0.021,0.01,0.029,0.02,0.043
'0:00.615',-0.175,0.019,0.01,0.029,0.02,0.046
'0:00.616',-0.177,0.016,0.007,0.026,0.017,0.044
'0:00.617',-0.183,0.013,0.004,0.022,0.011,0.037
'0:00.618',-0.185,0.01,-0.001,0.016,0.001,0.027
'0:00.619',-0.185,0.007,-0.006,0.009,-0.009,0.013
'0:00.620',-0.186,0.005,-0.012,0.002,-0.018,-0.002
'0:00.621',-0.184,0.005,-0.016,-0.004,-0.028,-0.017
'0:00.622',-0.178,0.006,-0.017,-0.009,-0.035,-0.032
'0:00.623',-0.171,0.008,-0.019,-0.012,-0.041,-0.042
'0:00.624',-0.166,0.008,-0.02,-0.015,-0.045,-0.049
'0:00.625',-0.166,0.008,-0.02,-0.016,-0.046,-0.054
'0:00.626',-0.166,0.007,-0.02,-0.014,-0.044,-0.053
'0:00.627',-0.161,0.007,-0.017,-0.011,-0.039,-0.048
'0:00.628',-0.15,0.007,-0.014,-0.006,-0.031,-0.038
'0:00.629',-0.145,0.008,-0.01,0.001,-0.021,-0.026
'0:00.630',-0.15,0.008,-0.005,0.008,-0.01,-0.01
'0:00.631',-0.155,0.008,-0.001,0.013,-0.001,0.005
'0:00.632',-0.152,0.008,0.002,0.017,0.008,0.017
'0:00.633',-0.152,0.008,0.005,0.021,0.015,0.028
'0:00.634',-0.15,0.01,0.006,0.024,0.019,0.036
'0:00.635',-0.148,0.012,0.008,0.026,0.021,0.039
'0:00.636',-0.15,0.013,0.007,0.026,0.021,0.041
'0:00.637',-0.147,0.015,0.005,0.023,0.017,0.037
'0:00.638',-0.143,0.015,0.001,0.019,0.01,0.029
'0:00.639',-0.14,0.015,-0.005,0.014,0.001,0.018
'0:00.640',-0.136,0.017,-0.009,0.008,-0.009,0.005
'0:00.641',-0.134,0.019,-0.011,0.002,-0.018,-0.009
'0:00.642',-0.13,0.021,-0.012,-0.003,-0.026,-0.021
'0:00.643',-0.126,0.022,-0.014,-0.008,-0.032,-0.031
'0:00.644',-0.122,0.022,-0.013,-0.01,-0.036,-0.036
'0:00.645',-0.121,0.021,-0.014,-0.011,-0.036,-0.037
'0:00.646',-0.123,0.019,-0.012,-0.01,-0.032,-0.035
'0:00.647',-0.122,0.018,-0.009,-0.007,-0.027,-0.027
'0:00.648',-0.118,0.016,-0.005,-0.001,-0.018,-0.015
'0:00.649',-0.108,0.015,-0.001,0.006,-0.007,0.002
'0:00.650',-0.103,0.011,0.002,0.014,0.005,0.019
'0:00.651',-0.105,0.007,0.002,0.019,0.015,0.034
'0:00.652',-0.105,0.004,0.003,0.023,0.022,0.047
'0:00.653',-0.097,0.002,0.002,0.025,0.028,0.058
'0:00.654',-0.091,0.001,0.002,0.026,0.031,0.063
'0:00.655',-0.087,0.002,0.002,0.026,0.03,0.064
'0:00.656',-0.086,0.003,0.001,0.023,0.027,0.063
'0:00.657',-0.078,0.004,-0.002,0.019,0.022,0.056
'0:00.658',-0.067,0.004,-0.006,0.012,0.015,0.047
'0:00.659',-0.066,0.004,-0.01,0.006,0.006,0.036
'0:00.660',-0.071,0.005,-0.013,-0.001,-0.004,0.022
'0:00.661',-0.076,0.007,-0.015,-0.006,-0.012,0.008
'0:00.662',-0.075,0.01,-0.016,-0.009,-0.019,-0.005
'0:00.663',-0.074,0.011,-0.016,-0.01,-0.025,-0.014
'0:00.664',-0.076,0.012,-0.016,-0.011,-0.027,-0.02
'0:00.665',-0.076,0.012,-0.016,-0.01,-0.026,-0.022
'0:00.666',-0.071,0.011,-0.014,-0.007,-0.022,-0.02
'0:00.667',-0.07,0.011,-0.01,-0.001,-0.016,-0.011
'0:00.668',-0.077,0.011,-0.005,0.006,-0.006,0.001
'0:00.669',-0.08,0.01,0.001,0.014,0.006,0.016
'0:00.670',-0.076,0.01,0.006,0.022,0.019,0.034
'0:00.671',-0.072,0.008,0.011,0.03,0.031,0.05
'0:00.672',-0.068,0.008,0.015,0.036,0.041,0.064
'0:00.673',-0.065,0.008,0.017,0.039,0.05,0.076
'0:00.674',-0.065,0.01,0.019,0.044,0.054,0.085
'0:00.675',-0.061,0.011,0.021,0.045,0.057,0.089
'0:00.676',-0.061,0.011,0.02,0.045,0.056,0.09
'0:00.677',-0.06,0.011,0.016,0.041,0.052,0.086
'0:00.678',-0.06,0.01,0.011,0.034,0.044,0.078
'0:00.679',-0.06,0.01,0.006,0.028,0.035,0.066
'0:00.680',-0.057,0.01,0.001,0.02,0.023,0.05
'0:00.681',-0.053,0.011,-0.004,0.013,0.012,0.034
'0:00.682',-0.051,0.011,-0.007,0.008,0.003,0.02
'0:00.683',-0.049,0.011,-0.01,0.003,-0.004,0.009
'0:00.684',-0.043,0.011,-0.012,-0.001,-0.008,0.001
'0:00.685',-0.033,0.009,-0.014,-0.003,-0.008,-0.001
'0:00.686',-0.02,0.007,-0.014,-0.003,-0.006,0.002
'0:00.687',-0.016,0.005,-0.011,0.001,0.001,0.011
'0:00.688',-0.016,0.004,-0.008,0.008,0.011,0.024
'0:00.689',-0.012,0.003,-0.005,0.016,0.024,0.041
'0:00.690',-0.011,0.003,0.001,0.025,0.036,0.059
'0:00.691',-0.014,0.002,0.006,0.033,0.048,0.077
'0:00.692',-0.009,0.003,0.01,0.039,0.058,0.093
'0:00.693',-0.001,0.004,0.013,0.045,0.064,0.103
'0:00.694',0.006,0.008,0.016,0.048,0.07,0.11
'0:00.695',0.014,0.011,0.017,0.05,0.07,0.112
'0:00.696',0.022,0.013,0.016,0.047,0.068,0.111
'0:00.697',0.029,0.015,0.013,0.042,0.062,0.105
'0:00.698',0.034,0.016,0.008,0.035,0.053,0.096
'0:00.699',0.037,0.017,0.002,0.027,0.042,0.082
'0:00.700',0.042,0.018,-0.004,0.018,0.032,0.067
'0:00.701',0.056,0.021,-0.008,0.011,0.021,0.051
'0:00.702',0.065,0.022,-0.012,0.006,0.014,0.037
'0:00.703',0.062,0.023,-0.016,0.003,0.008,0.027
'0:00.704',0.058,0.021,-0.018,0.001,0.005,0.022
'0:00.705',0.06,0.017,-0.019,0.001,0.005,0.021
'0:00.706',0.063,0.013,-0.017,0.005,0.009,0.026
'0:00.707',0.058,0.008,-0.014,0.011,0.017,0.034
'0:00.708',0.055,0.004,-0.008,0.017,0.028,0.049
'0:00.709',0.071,-0.001,-0.002,0.025,0.04,0.065
'0:00.710',0.086,-0.006,0.001,0.032,0.052,0.083
'0:00.711',0.085,-0.012,0.004,0.037,0.064,0.1
'0:00.712',0.086,-0.017,0.005,0.04,0.073,0.114
'0:00.713',0.09,-0.022,0.005,0.042,0.079,0.124
'0:00.714',0.09,-0.025,0.005,0.044,0.083,0.132
'0:00.715',0.089,-0.028,0.004,0.042,0.083,0.134
'0:00.716',0.084,-0.029,0.001,0.04,0.08,0.133
'0:00.717',0.081,-0.03,-0.004,0.036,0.072,0.128
'0:00.718',0.085,-0.031,-0.01,0.03,0.062,0.119
'0:00.719',0.089,-0.03,-0.015,0.023,0.052,0.106
'0:00.720',0.087,-0.027,-0.02,0.017,0.043,0.094
'0:00.721',0.087,-0.024,-0.022,0.013,0.035,0.082
'0:00.722',0.092,-0.02,-0.022,0.011,0.031,0.072
'0:00.723',0.1,-0.017,-0.022,0.01,0.029,0.064
'0:00.724',0.101,-0.016,-0.022,0.01,0.028,0.061
'0:00.725',0.101,-0.017,-0.022,0.011,0.03,0.061
'0:00.726',0.105,-0.017,-0.02,0.014,0.033,0.064
'0:00.727',0.109,-0.019,-0.016,0.018,0.039,0.071
'0:00.728',0.112,-0.02,-0.012,0.024,0.048,0.081
'0:00.729',0.115,-0.02,-0.008,0.03,0.056,0.093
'0:00.730',0.111,-0.021,-0.005,0.036,0.066,0.107
'0:00.731',0.108,-0.023,-0.002,0.041,0.074,0.119
'0:00.732',0.106,-0.025,-0.001,0.045,0.08,0.129
'0:00.733',0.101,-0.026,0,0.046,0.083,0.136
'0:00.734',0.103,-0.024,0.001,0.046,0.085,0.139
'0:00.735',0.105,-0.022,0.001,0.047,0.084,0.139
'0:00.736',0.101,-0.021,0,0.045,0.08,0.134
'0:00.737',0.095,-0.019,-0.005,0.039,0.071,0.126
'0:00.738',0.092,-0.019,-0.01,0.033,0.06,0.112
'0:00.739',0.089,-0.019,-0.015,0.025,0.048,0.097
'0:00.740',0.082,-0.017,-0.019,0.017,0.035,0.08
'0:00.741',0.077,-0.015,-0.022,0.012,0.023,0.063
'0:00.742',0.071,-0.013,-0.022,0.008,0.015,0.047
'0:00.743',0.066,-0.011,-0.022,0.007,0.009,0.035
'0:00.744',0.062,-0.01,-0.02,0.007,0.006,0.026
'0:00.745',0.059,-0.009,-0.016,0.009,0.005,0.021
'0:00.746',0.057,-0.008,-0.01,0.013,0.008,0.021
'0:00.747',0.049,-0.006,-0.003,0.019,0.014,0.026
'0:00.748',0.036,-0.005,0.005,0.028,0.022,0.035
'0:00.749',0.03,-0.003,0.011,0.034,0.032,0.046
'0:00.750',0.025,-0.002,0.017,0.041,0.042,0.06
'0:00.751',0.017,-0.001,0.021,0.046,0.05,0.071
'0:00.752',0.014,0,0.022,0.047,0.055,0.081
'0:00.753',0.011,0,0.022,0.046,0.054,0.085
'0:00.754',0.007,-0.001,0.019,0.042,0.05,0.084
'0:00.755',0.005,-0.005,0.011,0.034,0.04,0.077
'0:00.756',0.005,-0.011,-0.001,0.021,0.025,0.063
'0:00.757',-0.001,-0.022,-0.019,0.001,0.006,0.045
'0:00.758',-0.006,-0.033,-0.04,-0.023,-0.019,0.021
'0:00.759',-0.011,-0.046,-0.062,-0.048,-0.046,-0.008
'0:00.760',-0.015,-0.058,-0.084,-0.073,-0.073,-0.038
'0:00.761',-0.02,-0.068,-0.105,-0.096,-0.099,-0.068
'0:00.762',-0.022,-0.079,-0.124,-0.118,-0.121,-0.097
'0:00.763',-0.031,-0.09,-0.141,-0.136,-0.142,-0.122
'0:00.764',-0.052,-0.1,-0.157,-0.152,-0.157,-0.142
'0:00.765',-0.07,-0.109,-0.167,-0.162,-0.166,-0.153
'0:00.766',-0.077,-0.115,-0.172,-0.165,-0.167,-0.157
'0:00.767',-0.082,-0.115,-0.171,-0.16,-0.16,-0.15
'0:00.768',-0.089,-0.112,-0.16,-0.146,-0.143,-0.135
'0:00.769',-0.091,-0.104,-0.145,-0.126,-0.123,-0.113
'0:00.770',-0.09,-0.096,-0.126,-0.103,-0.099,-0.09
'0:00.771',-0.092,-0.086,-0.108,-0.08,-0.076,-0.066
'0:00.772',-0.096,-0.077,-0.089,-0.059,-0.054,-0.044
'0:00.773',-0.102,-0.068,-0.074,-0.042,-0.038,-0.028
'0:00.774',-0.107,-0.058,-0.062,-0.028,-0.025,-0.016
'0:00.775',-0.111,-0.049,-0.051,-0.019,-0.018,-0.01
'0:00.776',-0.113,-0.042,-0.044,-0.016,-0.016,-0.01
'0:00.777',-0.112,-0.037,-0.041,-0.015,-0.019,-0.013
'0:00.778',-0.109,-0.032,-0.038,-0.017,-0.025,-0.022
'0:00.779',-0.115,-0.027,-0.036,-0.02,-0.032,-0.032
'0:00.780',-0.116,-0.021,-0.034,-0.023,-0.04,-0.043
'0:00.781',-0.115,-0.015,-0.031,-0.023,-0.046,-0.054
'0:00.782',-0.12,-0.01,-0.028,-0.023,-0.05,-0.062
'0:00.783',-0.124,-0.005,-0.026,-0.023,-0.051,-0.068
'0:00.784',-0.12,-0.003,-0.024,-0.021,-0.051,-0.072
'0:00.785',-0.113,-0.001,-0.022,-0.02,-0.048,-0.072
'0:00.786',-0.107,0.002,-0.02,-0.018,-0.045,-0.069
'0:00.787',-0.105,0.005,-0.016,-0.014,-0.038,-0.063
'0:00.788',-0.107,0.009,-0.011,-0.008,-0.031,-0.052
'0:00.789',-0.108,0.011,-0.006,-0.002,-0.023,-0.04
'0:00.790',-0.109,0.012,-0.004,0.003,-0.016,-0.027
'0:00.791',-0.111,0.011,-0.004,0.005,-0.01,-0.016
'0:00.792',-0.116,0.008,-0.005,0.006,-0.006,-0.007
'0:00.793',-0.122,0.007,-0.006,0.006,-0.005,-0.001
'0:00.794',-0.124,0.008,-0.007,0.005,-0.005,0.003
'0:00.795',-0.127,0.011,-0.009,0.003,-0.007,0.003
'0:00.796',-0.134,0.013,-0.01,0,-0.011,0.001
'0:00.797',-0.142,0.014,-0.013,-0.005,-0.018,-0.006
'0:00.798',-0.147,0.015,-0.017,-0.01,-0.028,-0.016
'0:00.799',-0.152,0.014,-0.021,-0.015,-0.038,-0.029
'0:00.800',-0.155,0.013,-0.025,-0.021,-0.048,-0.044
'0:00.801',-0.157,0.01,-0.027,-0.026,-0.058,-0.059
'0:00.802',-0.162,0.006,-0.03,-0.031,-0.065,-0.073
'0:00.803',-0.162,0.002,-0.032,-0.034,-0.071,-0.083
'0:00.804',-0.157,-0.004,-0.034,-0.036,-0.076,-0.091
'0:00.805',-0.155,-0.01,-0.036,-0.038,-0.076,-0.094
'0:00.806',-0.156,-0.014,-0.035,-0.037,-0.074,-0.093
'0:00.807',-0.162,-0.017,-0.033,-0.033,-0.068,-0.086
'0:00.808',-0.165,-0.019,-0.028,-0.027,-0.059,-0.073
'0:00.809',-0.16,-0.021,-0.022,-0.02,-0.046,-0.058
'0:00.810',-0.162,-0.024,-0.017,-0.012,-0.035,-0.042
'0:00.811',-0.165,-0.026,-0.014,-0.006,-0.025,-0.026
'0:00.812',-0.157,-0.028,-0.011,-0.003,-0.016,-0.011
'0:00.813',-0.15,-0.027,-0.01,0.001,-0.009,-0.001
'0:00.814',-0.15,-0.026,-0.009,0.002,-0.006,0.005
'0:00.815',-0.157,-0.023,-0.01,0.001,-0.006,0.007
'0:00.816',-0.162,-0.021,-0.012,-0.001,-0.011,0.004
'0:00.817',-0.155,-0.019,-0.016,-0.006,-0.016,-0.004
'0:00.818',-0.152,-0.018,-0.022,-0.012,-0.025,-0.015
'0:00.819',-0.164,-0.017,-0.028,-0.019,-0.035,-0.028
'0:00.820',-0.177,-0.015,-0.032,-0.025,-0.045,-0.043
'0:00.821',-0.178,-0.012,-0.033,-0.03,-0.053,-0.056
'0:00.822',-0.176,-0.008,-0.034,-0.033,-0.06,-0.069
'0:00.823',-0.175,-0.003,-0.033,-0.034,-0.064,-0.079
'0:00.824',-0.177,-0.001,-0.032,-0.035,-0.067,-0.085
'0:00.825',-0.177,-0.001,-0.031,-0.034,-0.067,-0.088
'0:00.826',-0.172,-0.001,-0.027,-0.033,-0.064,-0.087
'0:00.827',-0.17,-0.002,-0.024,-0.029,-0.059,-0.081
'0:00.828',-0.172,-0.003,-0.02,-0.023,-0.051,-0.072
'0:00.829',-0.171,-0.003,-0.015,-0.017,-0.042,-0.059
'0:00.830',-0.169,-0.004,-0.011,-0.011,-0.032,-0.046
'0:00.831',-0.175,-0.006,-0.009,-0.006,-0.025,-0.031
'0:00.832',-0.182,-0.008,-0.007,-0.003,-0.017,-0.017
'0:00.833',-0.182,-0.01,-0.007,0.001,-0.011,-0.007
'0:00.834',-0.176,-0.011,-0.006,0.003,-0.007,0.002
'0:00.835',-0.176,-0.01,-0.007,0.004,-0.006,0.006
'0:00.836',-0.181,-0.01,-0.01,0.002,-0.007,0.005
'0:00.837',-0.172,-0.011,-0.014,-0.003,-0.013,-0.002
'0:00.838',-0.159,-0.012,-0.02,-0.008,-0.022,-0.013
'0:00.839',-0.153,-0.013,-0.026,-0.016,-0.034,-0.027
'0:00.840',-0.15,-0.013,-0.031,-0.024,-0.045,-0.043
'0:00.841',-0.145,-0.012,-0.034,-0.03,-0.056,-0.058
'0:00.842',-0.145,-0.01,-0.037,-0.035,-0.062,-0.069
'0:00.843',-0.151,-0.01,-0.037,-0.038,-0.068,-0.078
'0:00.844',-0.158,-0.009,-0.037,-0.039,-0.07,-0.083
'0:00.845',-0.161,-0.009,-0.035,-0.039,-0.068,-0.084
'0:00.846',-0.157,-0.008,-0.031,-0.036,-0.063,-0.081
'0:00.847',-0.156,-0.008,-0.026,-0.03,-0.056,-0.074
'0:00.848',-0.159,-0.008,-0.021,-0.023,-0.046,-0.064
'0:00.849',-0.157,-0.008,-0.015,-0.016,-0.036,-0.052
'0:00.850',-0.156,-0.01,-0.011,-0.01,-0.026,-0.039
'0:00.851',-0.158,-0.011,-0.007,-0.005,-0.018,-0.024
'0:00.852',-0.165,-0.012,-0.006,-0.001,-0.009,-0.012
'0:00.853',-0.166,-0.013,-0.004,0.003,-0.004,-0.001
'0:00.854',-0.166,-0.012,-0.002,0.005,0,0.007
'0:00.855',-0.171,-0.01,-0.002,0.006,0.002,0.011
'0:00.856',-0.177,-0.009,-0.003,0.006,0,0.011
'0:00.857',-0.172,-0.009,-0.007,0.002,-0.005,0.006
'0:00.858',-0.166,-0.009,-0.013,-0.004,-0.012,-0.004
'0:00.859',-0.167,-0.01,-0.02,-0.011,-0.022,-0.017
'0:00.860',-0.164,-0.009,-0.026,-0.018,-0.035,-0.032
'0:00.861',-0.16,-0.008,-0.03,-0.025,-0.044,-0.047
'0:00.862',-0.155,-0.006,-0.033,-0.031,-0.055,-0.061
'0:00.863',-0.154,-0.004,-0.034,-0.036,-0.061,-0.072
'0:00.864',-0.157,-0.003,-0.035,-0.038,-0.066,-0.08
'0:00.865',-0.156,-0.003,-0.034,-0.04,-0.067,-0.085
'0:00.866',-0.148,-0.002,-0.031,-0.037,-0.064,-0.085
'0:00.867',-0.144,-0.001,-0.026,-0.033,-0.058,-0.08
'0:00.868',-0.147,-0.001,-0.021,-0.028,-0.048,-0.069
'0:00.869',-0.149,-0.003,-0.017,-0.02,-0.038,-0.055
'0:00.870',-0.147,-0.005,-0.014,-0.012,-0.027,-0.039
'0:00.871',-0.151,-0.008,-0.011,-0.006,-0.016,-0.025
'0:00.872',-0.153,-0.01,-0.01,-0.001,-0.008,-0.012
'0:00.873',-0.155,-0.011,-0.007,0.005,-0.002,-0.001
'0:00.874',-0.155,-0.009,-0.005,0.008,0.002,0.006
'0:00.875',-0.159,-0.006,-0.002,0.011,0.003,0.009
'0:00.876',-0.161,-0.002,-0.002,0.01,0.001,0.007
'0:00.877',-0.157,0.001,-0.005,0.006,-0.005,0.001
'0:00.878',-0.152,0.002,-0.01,0,-0.014,-0.009
'0:00.879',-0.159,0.003,-0.015,-0.008,-0.025,-0.022
'0:00.880',-0.162,0.004,-0.02,-0.014,-0.036,-0.038
'0:00.881',-0.164,0.006,-0.023,-0.021,-0.046,-0.052
'0:00.882',-0.166,0.009,-0.025,-0.026,-0.054,-0.064
'0:00.883',-0.169,0.011,-0.025,-0.029,-0.059,-0.073
'0:00.884',-0.168,0.013,-0.026,-0.03,-0.061,-0.079
'0:00.885',-0.17,0.015,-0.025,-0.028,-0.06,-0.081
'0:00.886',-0.172,0.016,-0.022,-0.026,-0.056,-0.078
'0:00.887',-0.177,0.018,-0.017,-0.021,-0.05,-0.073
'0:00.888',-0.181,0.02,-0.012,-0.014,-0.04,-0.063
'0:00.889',-0.178,0.021,-0.007,-0.006,-0.03,-0.048
'0:00.890',-0.171,0.021,-0.004,0,-0.018,-0.033
'0:00.891',-0.165,0.019,-0.002,0.005,-0.009,-0.018
'0:00.892',-0.159,0.014,-0.002,0.007,-0.001,-0.006
'0:00.893',-0.151,0.008,-0.003,0.008,0.004,0.005
'0:00.894',-0.14,0.001,-0.005,0.008,0.007,0.011
'0:00.895',-0.132,-0.004,-0.007,0.006,0.006,0.014
'0:00.896',-0.134,-0.01,-0.011,0.003,0.002,0.012
'0:00.897',-0.137,-0.014,-0.016,-0.002,-0.005,0.005
'0:00.898',-0.14,-0.017,-0.022,-0.01,-0.016,-0.007
'0:00.899',-0.151,-0.019,-0.027,-0.018,-0.028,-0.022
'0:00.900',-0.157,-0.02,-0.032,-0.026,-0.04,-0.037
'0:00.901',-0.152,-0.019,-0.034,-0.031,-0.051,-0.054
'0:00.902',-0.148,-0.019,-0.034,-0.036,-0.059,-0.066
'0:00.903',-0.15,-0.017,-0.034,-0.038,-0.063,-0.076
'0:00.904',-0.146,-0.018,-0.033,-0.039,-0.065,-0.08
'0:00.905',-0.14,-0.017,-0.031,-0.037,-0.063,-0.08
'0:00.906',-0.134,-0.017,-0.029,-0.034,-0.06,-0.076
'0:00.907',-0.135,-0.016,-0.025,-0.03,-0.053,-0.068
'0:00.908',-0.137,-0.015,-0.02,-0.023,-0.044,-0.056
'0:00.909',-0.135,-0.014,-0.015,-0.016,-0.034,-0.041
'0:00.910',-0.135,-0.014,-0.011,-0.011,-0.022,-0.026
'0:00.911',-0.145,-0.016,-0.009,-0.006,-0.012,-0.01
'0:00.912',-0.156,-0.016,-0.006,-0.002,-0.002,0.002
'0:00.913',-0.161,-0.016,-0.005,0.001,0.005,0.012
'0:00.914',-0.165,-0.013,-0.002,0.004,0.009,0.019
'0:00.915',-0.165,-0.01,-0.001,0.006,0.011,0.021
'0:00.916',-0.163,-0.006,-0.002,0.005,0.009,0.019
'0:00.917',-0.161,-0.005,-0.006,0.001,0.002,0.011
'0:00.918',-0.156,-0.005,-0.011,-0.005,-0.009,-0.002
'0:00.919',-0.15,-0.006,-0.018,-0.012,-0.023,-0.019
'0:00.920',-0.15,-0.007,-0.025,-0.021,-0.038,-0.037
'0:00.921',-0.145,-0.008,-0.029,-0.028,-0.05,-0.054
'0:00.922',-0.136,-0.007,-0.033,-0.033,-0.06,-0.069
'0:00.923',-0.13,-0.007,-0.034,-0.037,-0.066,-0.081
'0:00.924',-0.136,-0.008,-0.035,-0.041,-0.069,-0.088
'0:00.925',-0.143,-0.009,-0.035,-0.04,-0.068,-0.09
'0:00.926',-0.146,-0.009,-0.032,-0.038,-0.063,-0.087
'0:00.927',-0.147,-0.008,-0.027,-0.033,-0.054,-0.08
'0:00.928',-0.156,-0.006,-0.02,-0.024,-0.044,-0.066
'0:00.929',-0.164,-0.003,-0.012,-0.015,-0.032,-0.051
'0:00.930',-0.16,0,-0.005,-0.007,-0.021,-0.035
'0:00.931',-0.151,0.002,0.002,0.001,-0.011,-0.02
'0:00.932',-0.142,0.003,0.006,0.006,-0.003,-0.007
'0:00.933',-0.136,0.004,0.009,0.011,0.002,0.002
'0:00.934',-0.133,0.006,0.01,0.012,0.005,0.007
'0:00.935',-0.134,0.004,0.007,0.012,0.004,0.009
'0:00.936',-0.135,0.003,0.004,0.008,0,0.006
'0:00.937',-0.14,-0.001,-0.002,0.002,-0.007,-0.001
'0:00.938',-0.14,-0.004,-0.01,-0.006,-0.017,-0.012
'0:00.939',-0.142,-0.007,-0.016,-0.014,-0.027,-0.024
'0:00.940',-0.147,-0.008,-0.022,-0.021,-0.037,-0.037
'0:00.941',-0.152,-0.007,-0.026,-0.026,-0.046,-0.051
'0:00.942',-0.152,-0.006,-0.028,-0.03,-0.051,-0.061
'0:00.943',-0.152,-0.004,-0.031,-0.03,-0.056,-0.07
'0:00.944',-0.151,-0.005,-0.031,-0.031,-0.057,-0.076
'0:00.945',-0.152,-0.006,-0.03,-0.031,-0.057,-0.077
'0:00.946',-0.153,-0.008,-0.029,-0.028,-0.054,-0.074
'0:00.947',-0.157,-0.008,-0.025,-0.023,-0.049,-0.068
'0:00.948',-0.16,-0.007,-0.019,-0.017,-0.04,-0.057
'0:00.949',-0.152,-0.006,-0.012,-0.01,-0.03,-0.043
'0:00.950',-0.148,-0.005,-0.006,-0.002,-0.019,-0.028
'0:00.951',-0.154,-0.005,-0.001,0.005,-0.009,-0.014
'0:00.952',-0.156,-0.005,0.002,0.01,-0.001,-0.001
'0:00.953',-0.155,-0.005,0.004,0.012,0.004,0.008
'0:00.954',-0.153,-0.005,0.005,0.014,0.006,0.015
'0:00.955',-0.152,-0.004,0.003,0.014,0.006,0.016
'0:00.956',-0.16,-0.003,0,0.011,0.002,0.014
'0:00.957',-0.164,-0.002,-0.005,0.006,-0.006,0.006
'0:00.958',-0.162,-0.001,-0.01,-0.001,-0.015,-0.006
'0:00.959',-0.161,0,-0.015,-0.01,-0.027,-0.021
'0:00.960',-0.159,0.001,-0.02,-0.017,-0.039,-0.037
'0:00.961',-0.15,0.003,-0.022,-0.023,-0.05,-0.055
'0:00.962',-0.142,0.003,-0.025,-0.03,-0.058,-0.071
'0:00.963',-0.143,0.002,-0.027,-0.033,-0.064,-0.082
'0:00.964',-0.15,0.001,-0.029,-0.036,-0.068,-0.089
'0:00.965',-0.156,-0.001,-0.029,-0.035,-0.067,-0.091
'0:00.966',-0.152,-0.003,-0.027,-0.032,-0.063,-0.088
'0:00.967',-0.149,-0.003,-0.023,-0.026,-0.055,-0.078
'0:00.968',-0.152,-0.002,-0.017,-0.019,-0.045,-0.065
'0:00.969',-0.156,-0.001,-0.011,-0.01,-0.032,-0.048
'0:00.970',-0.16,-0.001,-0.005,-0.001,-0.019,-0.031
'0:00.971',-0.158,-0.001,-0.001,0.006,-0.008,-0.015
'0:00.972',-0.154,0,0.003,0.012,0.001,-0.001
'0:00.973',-0.152,0,0.005,0.017,0.006,0.009
'0:00.974',-0.157,0.002,0.006,0.019,0.009,0.015
'0:00.975',-0.156,0.004,0.005,0.017,0.008,0.016
'0:00.976',-0.153,0.006,0.001,0.013,0.003,0.012
'0:00.977',-0.146,0.007,-0.004,0.006,-0.006,0.005
'0:00.978',-0.14,0.007,-0.011,-0.002,-0.018,-0.008
'0:00.979',-0.139,0.007,-0.017,-0.011,-0.031,-0.023
'0:00.980',-0.142,0.007,-0.024,-0.019,-0.044,-0.04
'0:00.981',-0.151,0.008,-0.027,-0.026,-0.053,-0.054
'0:00.982',-0.17,0.01,-0.029,-0.031,-0.061,-0.067
'0:00.983',-0.182,0.014,-0.029,-0.031,-0.064,-0.074
'0:00.984',-0.18,0.018,-0.026,-0.031,-0.064,-0.078
'0:00.985',-0.166,0.023,-0.023,-0.029,-0.061,-0.078
'0:00.986',-0.158,0.028,-0.017,-0.024,-0.055,-0.073
'0:00.987',-0.161,0.032,-0.011,-0.017,-0.047,-0.064
'0:00.988',-0.162,0.033,-0.005,-0.01,-0.036,-0.052
'0:00.989',-0.153,0.03,0.001,-0.003,-0.027,-0.038
'0:00.990',-0.153,0.024,0.003,0.004,-0.018,-0.024
'0:00.991',-0.161,0.016,0.005,0.008,-0.009,-0.011
'0:00.992',-0.167,0.008,0.005,0.011,-0.003,-0.001
'0:00.993',-0.176,0.001,0.005,0.013,0.001,0.007
'0:00.994',-0.18,-0.002,0.006,0.015,0.005,0.012
'0:00.995',-0.181,-0.004,0.006,0.016,0.005,0.013
'0:00.996',-0.187,-0.004,0.005,0.016,0.003,0.01
'0:00.997',-0.19,-0.006,0.001,0.011,-0.003,0.002
'0:00.998',-0.19,-0.008,-0.005,0.005,-0.013,-0.01
'0:00.999',-0.191,-0.011,-0.01,-0.003,-0.026,-0.026
'0:01.000',-0.191,-0.012,-0.015,-0.011,-0.039,-0.042
'0:01.001',-0.181,-0.012,-0.02,-0.017,-0.05,-0.059
'0:01.002',-0.172,-0.011,-0.023,-0.024,-0.058,-0.072
'0:01.003',-0.164,-0.01,-0.027,-0.028,-0.064,-0.082
'0:01.004',-0.162,-0.01,-0.029,-0.031,-0.066,-0.087
'0:01.005',-0.167,-0.01,-0.029,-0.031,-0.066,-0.088
'0:01.006',-0.166,-0.01,-0.027,-0.03,-0.061,-0.083
'0:01.007',-0.163,-0.01,-0.025,-0.025,-0.054,-0.075
'0:01.008',-0.161,-0.009,-0.019,-0.017,-0.043,-0.062
'0:01.009',-0.154,-0.009,-0.014,-0.011,-0.032,-0.047
'0:01.010',-0.148,-0.01,-0.009,-0.005,-0.021,-0.029
'0:01.011',-0.15,-0.011,-0.006,0.001,-0.011,-0.014
'0:01.012',-0.151,-0.012,-0.005,0.006,-0.003,0
'0:01.013',-0.151,-0.013,-0.002,0.009,0.002,0.01
'0:01.014',-0.153,-0.01,0.001,0.011,0.006,0.015
'0:01.015',-0.156,-0.007,0.002,0.012,0.006,0.017
'0:01.016',-0.156,-0.003,0.002,0.012,0.005,0.015
'0:01.017',-0.151,0,0.002,0.008,0,0.008
'0:01.018',-0.149,0.002,-0.001,0.002,-0.008,-0.002
'0:01.019',-0.152,0.004,-0.005,-0.006,-0.018,-0.016
'0:01.020',-0.15,0.006,-0.009,-0.014,-0.028,-0.031
'0:01.021',-0.144,0.007,-0.012,-0.021,-0.038,-0.047
'0:01.022',-0.146,0.008,-0.016,-0.027,-0.047,-0.063
'0:01.023',-0.149,0.006,-0.019,-0.033,-0.055,-0.076
'0:01.024',-0.147,0.004,-0.021,-0.037,-0.06,-0.085
'0:01.025',-0.144,0.001,-0.022,-0.04,-0.063,-0.091
'0:01.026',-0.148,-0.001,-0.022,-0.038,-0.061,-0.091
'0:01.027',-0.157,-0.001,-0.019,-0.033,-0.055,-0.085
'0:01.028',-0.157,0.001,-0.012,-0.026,-0.044,-0.073
'0:01.029',-0.149,0.002,-0.006,-0.016,-0.032,-0.058
'0:01.030',-0.144,0.002,-0.001,-0.008,-0.019,-0.039
'0:01.031',-0.144,0.002,0.003,-0.001,-0.009,-0.023
'0:01.032',-0.141,0.001,0.005,0.003,-0.001,-0.01
'0:01.033',-0.139,0,0.006,0.006,0.004,0.001
'0:01.034',-0.135,0.001,0.007,0.008,0.006,0.007
'0:01.035',-0.142,0.003,0.007,0.007,0.005,0.01
'0:01.036',-0.155,0.006,0.007,0.006,0.002,0.007
'0:01.037',-0.162,0.009,0.006,0.003,-0.004,0.001
'0:01.038',-0.162,0.012,0.004,-0.003,-0.012,-0.011
'0:01.039',-0.16,0.015,0,-0.01,-0.023,-0.026
'0:01.040',-0.156,0.016,-0.006,-0.017,-0.035,-0.042
'0:01.041',-0.158,0.017,-0.011,-0.025,-0.046,-0.059
'0:01.042',-0.158,0.016,-0.015,-0.03,-0.055,-0.073
'0:01.043',-0.152,0.014,-0.019,-0.035,-0.061,-0.085
'0:01.044',-0.148,0.009,-0.022,-0.037,-0.064,-0.091
'0:01.045',-0.15,0.004,-0.025,-0.039,-0.064,-0.094
'0:01.046',-0.148,-0.002,-0.025,-0.038,-0.061,-0.091
'0:01.047',-0.151,-0.006,-0.022,-0.034,-0.054,-0.084
'0:01.048',-0.154,-0.008,-0.019,-0.028,-0.045,-0.071
'0:01.049',-0.155,-0.01,-0.015,-0.021,-0.034,-0.058
'0:01.050',-0.162,-0.01,-0.01,-0.013,-0.022,-0.041
'0:01.051',-0.172,-0.011,-0.006,-0.007,-0.012,-0.026
'0:01.052',-0.171,-0.011,-0.002,-0.001,-0.005,-0.014
'0:01.053',-0.16,-0.01,0,0.003,0.002,-0.003
'0:01.054',-0.147,-0.008,0.002,0.005,0.006,0.003
'0:01.055',-0.145,-0.006,0.003,0.006,0.006,0.007
'0:01.056',-0.145,-0.005,0.002,0.004,0.005,0.007
'0:01.057',-0.139,-0.004,-0.002,-0.001,-0.001,0.002
'0:01.058',-0.13,-0.004,-0.007,-0.008,-0.008,-0.007
'0:01.059',-0.13,-0.004,-0.012,-0.016,-0.019,-0.021
'0:01.060',-0.136,-0.004,-0.019,-0.024,-0.031,-0.037
'0:01.061',-0.136,-0.004,-0.024,-0.032,-0.042,-0.054
'0:01.062',-0.141,-0.005,-0.029,-0.04,-0.054,-0.071
'0:01.063',-0.14,-0.008,-0.032,-0.045,-0.063,-0.084
'0:01.064',-0.134,-0.011,-0.036,-0.05,-0.068,-0.093
'0:01.065',-0.13,-0.015,-0.037,-0.052,-0.072,-0.097
'0:01.066',-0.13,-0.016,-0.035,-0.05,-0.071,-0.095
'0:01.067',-0.126,-0.017,-0.031,-0.046,-0.066,-0.088
'0:01.068',-0.123,-0.016,-0.026,-0.039,-0.058,-0.076
'0:01.069',-0.12,-0.015,-0.02,-0.03,-0.046,-0.059
'0:01.070',-0.116,-0.015,-0.015,-0.021,-0.033,-0.04
'0:01.071',-0.114,-0.014,-0.012,-0.013,-0.022,-0.021
'0:01.072',-0.114,-0.015,-0.01,-0.009,-0.014,-0.006
'0:01.073',-0.112,-0.016,-0.007,-0.005,-0.006,0.009
'0:01.074',-0.109,-0.016,-0.006,-0.001,-0.001,0.018
'0:01.075',-0.106,-0.015,-0.005,0.001,0.001,0.024
'0:01.076',-0.105,-0.013,-0.006,0.001,0,0.023
'0:01.077',-0.099,-0.01,-0.008,-0.002,-0.005,0.017
'0:01.078',-0.095,-0.008,-0.012,-0.007,-0.013,0.006
'0:01.079',-0.101,-0.005,-0.016,-0.014,-0.023,-0.008
'0:01.080',-0.103,-0.003,-0.02,-0.02,-0.035,-0.024
'0:01.081',-0.097,0.001,-0.024,-0.026,-0.044,-0.039
'0:01.082',-0.09,0.004,-0.026,-0.03,-0.052,-0.052
'0:01.083',-0.091,0.006,-0.027,-0.033,-0.058,-0.06
'0:01.084',-0.101,0.007,-0.029,-0.034,-0.06,-0.066
'0:01.085',-0.1,0.008,-0.029,-0.034,-0.06,-0.068
'0:01.086',-0.087,0.008,-0.026,-0.033,-0.057,-0.064
'0:01.087',-0.083,0.009,-0.021,-0.027,-0.051,-0.059
'0:01.088',-0.088,0.01,-0.016,-0.021,-0.042,-0.048
'0:01.089',-0.091,0.009,-0.01,-0.014,-0.032,-0.035
'0:01.090',-0.09,0.006,-0.005,-0.008,-0.022,-0.021
'0:01.091',-0.092,0.001,-0.001,-0.003,-0.013,-0.008
'0:01.092',-0.1,-0.004,0,0.001,-0.006,0.003
'0:01.093',-0.101,-0.009,0.001,0.004,-0.001,0.012
'0:01.094',-0.1,-0.013,0,0.005,0.001,0.016
'0:01.095',-0.099,-0.016,-0.002,0.004,-0.001,0.016
'0:01.096',-0.1,-0.018,-0.006,0,-0.006,0.011
'0:01.097',-0.1,-0.021,-0.012,-0.006,-0.012,0.004
'0:01.098',-0.099,-0.024,-0.017,-0.014,-0.022,-0.009
'0:01.099',-0.105,-0.026,-0.023,-0.022,-0.033,-0.023
'0:01.100',-0.115,-0.026,-0.027,-0.029,-0.044,-0.038
'0:01.101',-0.112,-0.024,-0.031,-0.034,-0.054,-0.052
'0:01.102',-0.104,-0.022,-0.032,-0.037,-0.061,-0.064
'0:01.103',-0.101,-0.019,-0.033,-0.039,-0.066,-0.072
'0:01.104',-0.106,-0.019,-0.034,-0.04,-0.069,-0.075
'0:01.105',-0.112,-0.017,-0.034,-0.039,-0.068,-0.074
'0:01.106',-0.111,-0.017,-0.033,-0.037,-0.064,-0.071
'0:01.107',-0.11,-0.015,-0.03,-0.033,-0.058,-0.063
'0:01.108',-0.106,-0.014,-0.025,-0.026,-0.048,-0.051
'0:01.109',-0.101,-0.013,-0.02,-0.019,-0.036,-0.037
'0:01.110',-0.103,-0.013,-0.016,-0.012,-0.026,-0.024
'0:01.111',-0.112,-0.015,-0.012,-0.008,-0.018,-0.01
'0:01.112',-0.119,-0.016,-0.011,-0.004,-0.011,0
'0:01.113',-0.122,-0.015,-0.009,-0.001,-0.006,0.007
'0:01.114',-0.126,-0.012,-0.007,0.001,-0.004,0.012
'0:01.115',-0.126,-0.008,-0.005,0.002,-0.004,0.011
'0:01.116',-0.132,-0.004,-0.005,0.001,-0.006,0.007
'0:01.117',-0.14,0.001,-0.007,-0.003,-0.012,-0.001
'0:01.118',-0.139,0.004,-0.01,-0.008,-0.021,-0.012
'0:01.119',-0.137,0.009,-0.011,-0.013,-0.029,-0.026
'0:01.120',-0.135,0.012,-0.012,-0.017,-0.038,-0.04
'0:01.121',-0.136,0.016,-0.012,-0.02,-0.046,-0.054
'0:01.122',-0.141,0.018,-0.014,-0.022,-0.052,-0.065
'0:01.123',-0.149,0.019,-0.015,-0.023,-0.056,-0.074
'0:01.124',-0.154,0.019,-0.015,-0.023,-0.058,-0.08
'0:01.125',-0.155,0.017,-0.015,-0.021,-0.057,-0.082
'0:01.126',-0.158,0.017,-0.012,-0.018,-0.054,-0.081
'0:01.127',-0.166,0.017,-0.007,-0.013,-0.046,-0.073
'0:01.128',-0.177,0.017,-0.002,-0.006,-0.037,-0.062
'0:01.129',-0.179,0.018,0.005,0.003,-0.025,-0.047
'0:01.130',-0.176,0.019,0.011,0.011,-0.012,-0.031
'0:01.131',-0.172,0.018,0.015,0.018,0,-0.015
'0:01.132',-0.164,0.017,0.018,0.023,0.008,-0.001
'0:01.133',-0.159,0.017,0.02,0.025,0.012,0.007
'0:01.134',-0.162,0.017,0.021,0.026,0.014,0.012
'0:01.135',-0.169,0.019,0.021,0.025,0.012,0.011
'0:01.136',-0.168,0.02,0.02,0.021,0.006,0.006
'0:01.137',-0.162,0.021,0.016,0.014,-0.002,-0.005
'0:01.138',-0.161,0.021,0.012,0.008,-0.013,-0.018
'0:01.139',-0.162,0.021,0.007,0.001,-0.025,-0.032
'0:01.140',-0.162,0.022,0.004,-0.006,-0.035,-0.047
'0:01.141',-0.16,0.023,0.001,-0.012,-0.043,-0.06
'0:01.142',-0.155,0.023,-0.002,-0.016,-0.049,-0.071
'0:01.143',-0.15,0.022,-0.006,-0.019,-0.054,-0.08
'0:01.144',-0.153,0.019,-0.007,-0.022,-0.056,-0.086
'0:01.145',-0.156,0.017,-0.01,-0.024,-0.058,-0.088
'0:01.146',-0.155,0.015,-0.008,-0.022,-0.055,-0.087
'0:01.147',-0.152,0.015,-0.006,-0.018,-0.049,-0.081
'0:01.148',-0.152,0.014,0,-0.011,-0.039,-0.071
'0:01.149',-0.153,0.015,0.006,-0.004,-0.03,-0.056
'0:01.150',-0.151,0.013,0.01,0.004,-0.018,-0.041
'0:01.151',-0.151,0.012,0.014,0.011,-0.008,-0.026
'0:01.152',-0.15,0.01,0.016,0.014,0.001,-0.012
'0:01.153',-0.15,0.008,0.017,0.018,0.006,-0.002
'0:01.154',-0.146,0.007,0.018,0.021,0.009,0.003
'0:01.155',-0.139,0.008,0.017,0.021,0.009,0.006
'0:01.156',-0.136,0.01,0.016,0.019,0.006,0.002
'0:01.157',-0.14,0.011,0.012,0.013,-0.002,-0.006
'0:01.158',-0.146,0.011,0.007,0.007,-0.012,-0.02
'0:01.159',-0.151,0.013,0.003,-0.001,-0.025,-0.035
'0:01.160',-0.156,0.015,-0.002,-0.008,-0.036,-0.051
'0:01.161',-0.162,0.018,-0.005,-0.014,-0.047,-0.068
'0:01.162',-0.167,0.021,-0.005,-0.018,-0.055,-0.082
'0:01.163',-0.173,0.022,-0.006,-0.021,-0.061,-0.092
'0:01.164',-0.176,0.022,-0.006,-0.023,-0.062,-0.099
'0:01.165',-0.176,0.02,-0.005,-0.022,-0.063,-0.101
'0:01.166',-0.169,0.019,-0.003,-0.019,-0.06,-0.1
'0:01.167',-0.167,0.019,0.001,-0.014,-0.052,-0.093
'0:01.168',-0.167,0.018,0.005,-0.008,-0.042,-0.081
'0:01.169',-0.162,0.017,0.009,-0.001,-0.031,-0.067
'0:01.170',-0.161,0.015,0.012,0.005,-0.019,-0.051
'0:01.171',-0.162,0.015,0.015,0.01,-0.01,-0.036
'0:01.172',-0.158,0.014,0.016,0.014,-0.002,-0.023
'0:01.173',-0.155,0.015,0.017,0.017,0.004,-0.014
'0:01.174',-0.16,0.018,0.019,0.02,0.008,-0.007
'0:01.175',-0.167,0.021,0.02,0.021,0.008,-0.004
'0:01.176',-0.164,0.024,0.02,0.021,0.007,-0.005
'0:01.177',-0.147,0.027,0.017,0.017,0.001,-0.011
'0:01.178',-0.135,0.028,0.014,0.012,-0.008,-0.021
'0:01.179',-0.136,0.028,0.007,0.005,-0.018,-0.034
'0:01.180',-0.134,0.028,0.002,-0.003,-0.031,-0.051
'0:01.181',-0.127,0.031,-0.002,-0.011,-0.042,-0.067
'0:01.182',-0.12,0.031,-0.006,-0.018,-0.052,-0.082
'0:01.183',-0.115,0.033,-0.009,-0.025,-0.061,-0.095
'0:01.184',-0.112,0.032,-0.011,-0.03,-0.067,-0.105
'0:01.185',-0.11,0.028,-0.013,-0.033,-0.071,-0.111
'0:01.186',-0.109,0.022,-0.015,-0.033,-0.073,-0.116
'0:01.187',-0.108,0.016,-0.015,-0.033,-0.073,-0.116
'0:01.188',-0.104,0.006,-0.016,-0.031,-0.071,-0.112
'0:01.189',-0.093,-0.005,-0.019,-0.03,-0.067,-0.107
'0:01.190',-0.081,-0.018,-0.022,-0.03,-0.064,-0.099
'0:01.191',-0.066,-0.031,-0.029,-0.031,-0.062,-0.092
'0:01.192',-0.047,-0.044,-0.036,-0.035,-0.063,-0.086
'0:01.193',-0.024,-0.058,-0.044,-0.041,-0.066,-0.082
'0:01.194',0.001,-0.07,-0.054,-0.048,-0.071,-0.081
'0:01.195',0.018,-0.083,-0.064,-0.056,-0.077,-0.083
'0:01.196',0.036,-0.096,-0.076,-0.065,-0.086,-0.088
'0:01.197',0.07,-0.109,-0.089,-0.076,-0.096,-0.095
'0:01.198',0.11,-0.12,-0.101,-0.087,-0.107,-0.103
'0:01.199',0.15,-0.128,-0.112,-0.096,-0.116,-0.111
'0:01.200',0.196,-0.133,-0.118,-0.101,-0.12,-0.116
'0:01.201',0.262,-0.134,-0.121,-0.102,-0.12,-0.114
'0:01.202',0.337,-0.134,-0.121,-0.099,-0.114,-0.105
'0:01.203',0.413,-0.134,-0.12,-0.093,-0.102,-0.089
'0:01.204',0.488,-0.137,-0.117,-0.086,-0.086,-0.064
'0:01.205',0.564,-0.142,-0.114,-0.075,-0.064,-0.032
'0:01.206',0.632,-0.146,-0.11,-0.062,-0.038,0.007
'0:01.207',0.691,-0.151,-0.102,-0.046,-0.005,0.055
'0:01.208',0.749,-0.155,-0.093,-0.026,0.031,0.11
'0:01.209',0.814,-0.157,-0.083,-0.004,0.071,0.168
'0:01.210',0.861,-0.159,-0.072,0.019,0.11,0.229
'0:01.211',0.894,-0.162,-0.063,0.039,0.147,0.287
'0:01.212',0.938,-0.163,-0.056,0.058,0.18,0.34
'0:01.213',0.988,-0.164,-0.051,0.071,0.207,0.384
'0:01.214',1.026,-0.164,-0.049,0.081,0.228,0.419
'0:01.215',1.059,-0.162,-0.05,0.086,0.241,0.445
'0:01.216',1.096,-0.162,-0.054,0.083,0.246,0.457
'0:01.217',1.134,-0.164,-0.064,0.075,0.243,0.459
'0:01.218',1.16,-0.167,-0.078,0.06,0.23,0.446
'0:01.219',1.171,-0.172,-0.094,0.042,0.209,0.425
'0:01.220',1.173,-0.177,-0.112,0.021,0.186,0.394
'0:01.221',1.158,-0.182,-0.128,0.001,0.162,0.364
'0:01.222',1.116,-0.183,-0.14,-0.013,0.143,0.334
'0:01.223',1.055,-0.181,-0.145,-0.021,0.129,0.31
'0:01.224',0.984,-0.174,-0.143,-0.02,0.122,0.291
'0:01.225',0.912,-0.159,-0.13,-0.011,0.122,0.278
'0:01.226',0.842,-0.136,-0.108,0.006,0.127,0.267
'0:01.227',0.756,-0.106,-0.078,0.026,0.136,0.259
'0:01.228',0.629,-0.074,-0.045,0.05,0.144,0.249
'0:01.229',0.477,-0.039,-0.01,0.074,0.155,0.241
'0:01.230',0.334,-0.003,0.026,0.098,0.163,0.232
'0:01.231',0.233,0.035,0.061,0.12,0.17,0.222
'0:01.232',0.168,0.07,0.093,0.14,0.175,0.213
'0:01.233',0.102,0.104,0.123,0.158,0.18,0.204
'0:01.234',0.039,0.132,0.147,0.171,0.182,0.195
'0:01.235',-0.025,0.154,0.165,0.179,0.181,0.186
'0:01.236',-0.095,0.168,0.175,0.181,0.174,0.173
'0:01.237',-0.165,0.172,0.175,0.175,0.163,0.156
'0:01.238',-0.241,0.171,0.169,0.164,0.146,0.134
'0:01.239',-0.309,0.166,0.159,0.15,0.126,0.11
'0:01.240',-0.355,0.158,0.146,0.135,0.105,0.083
'0:01.241',-0.384,0.15,0.134,0.12,0.086,0.059
'0:01.242',-0.404,0.139,0.12,0.104,0.068,0.037
'0:01.243',-0.416,0.127,0.106,0.09,0.051,0.02
'0:01.244',-0.421,0.115,0.091,0.076,0.036,0.005
'0:01.245',-0.412,0.101,0.079,0.062,0.023,-0.007
'0:01.246',-0.392,0.088,0.068,0.052,0.012,-0.015
'0:01.247',-0.358,0.076,0.059,0.044,0.007,-0.019
'0:01.248',-0.3,0.066,0.052,0.039,0.005,-0.019
'0:01.249',-0.225,0.054,0.046,0.036,0.004,-0.015
'0:01.250',-0.163,0.042,0.039,0.034,0.005,-0.01
'0:01.251',-0.125,0.031,0.033,0.032,0.006,-0.003
'0:01.252',-0.105,0.022,0.028,0.031,0.008,0.005
'0:01.253',-0.102,0.017,0.025,0.03,0.009,0.011
'0:01.254',-0.105,0.015,0.023,0.029,0.011,0.015
'0:01.255',-0.106,0.015,0.022,0.028,0.01,0.016
'0:01.256',-0.096,0.016,0.021,0.025,0.007,0.013
'0:01.257',-0.081,0.017,0.017,0.019,0.001,0.006
'0:01.258',-0.072,0.017,0.012,0.014,-0.009,-0.006
'0:01.259',-0.07,0.018,0.006,0.006,-0.02,-0.021
'0:01.260',-0.076,0.017,0.002,-0.002,-0.032,-0.036
'0:01.261',-0.083,0.017,-0.002,-0.008,-0.04,-0.05
'0:01.262',-0.091,0.017,-0.005,-0.013,-0.047,-0.062
'0:01.263',-0.101,0.015,-0.006,-0.017,-0.052,-0.071
'0:01.264',-0.112,0.014,-0.007,-0.019,-0.054,-0.076
'0:01.265',-0.125,0.013,-0.007,-0.019,-0.054,-0.078
'0:01.266',-0.138,0.012,-0.005,-0.017,-0.051,-0.076
'0:01.267',-0.146,0.013,0,-0.012,-0.044,-0.069
'0:01.268',-0.15,0.014,0.005,-0.005,-0.036,-0.059
'0:01.269',-0.146,0.015,0.011,0.004,-0.026,-0.046
'0:01.270',-0.141,0.013,0.016,0.011,-0.016,-0.032
'0:01.271',-0.138,0.012,0.019,0.016,-0.007,-0.017
'0:01.272',-0.132,0.011,0.021,0.021,0.001,-0.006
'0:01.273',-0.13,0.011,0.022,0.023,0.005,0.003
'0:01.274',-0.132,0.013,0.022,0.024,0.008,0.009
'0:01.275',-0.13,0.015,0.021,0.023,0.007,0.01
'0:01.276',-0.126,0.017,0.017,0.019,0.002,0.005
'0:01.277',-0.121,0.017,0.012,0.012,-0.006,-0.004
'0:01.278',-0.124,0.018,0.006,0.004,-0.018,-0.017
'0:01.279',-0.129,0.019,0.001,-0.005,-0.029,-0.032
'0:01.280',-0.13,0.022,-0.004,-0.012,-0.041,-0.047
'0:01.281',-0.124,0.025,-0.006,-0.019,-0.051,-0.064
'0:01.282',-0.122,0.028,-0.008,-0.023,-0.06,-0.078
'0:01.283',-0.119,0.029,-0.009,-0.027,-0.065,-0.089
'0:01.284',-0.117,0.029,-0.011,-0.03,-0.07,-0.097
'0:01.285',-0.116,0.027,-0.011,-0.03,-0.071,-0.101
'0:01.286',-0.114,0.024,-0.011,-0.028,-0.069,-0.101
'0:01.287',-0.121,0.022,-0.008,-0.025,-0.062,-0.095
'0:01.288',-0.127,0.017,-0.005,-0.019,-0.052,-0.085
'0:01.289',-0.122,0.013,0,-0.012,-0.042,-0.07
'0:01.290',-0.116,0.006,0.004,-0.006,-0.03,-0.054
'0:01.291',-0.121,0,0.006,0.001,-0.019,-0.037
'0:01.292',-0.124,-0.004,0.009,0.005,-0.01,-0.024
'0:01.293',-0.124,-0.008,0.011,0.009,-0.003,-0.013
'0:01.294',-0.121,-0.008,0.011,0.011,0.001,-0.006
'0:01.295',-0.121,-0.01,0.012,0.011,0.002,-0.002
'0:01.296',-0.127,-0.011,0.01,0.008,-0.001,-0.005
'0:01.297',-0.127,-0.013,0.005,0.003,-0.009,-0.011
'0:01.298',-0.125,-0.016,-0.001,-0.005,-0.019,-0.022
'0:01.299',-0.127,-0.017,-0.007,-0.012,-0.031,-0.036
'0:01.300',-0.132,-0.016,-0.012,-0.02,-0.042,-0.052
'0:01.301',-0.136,-0.014,-0.015,-0.026,-0.052,-0.066
'0:01.302',-0.142,-0.011,-0.017,-0.031,-0.06,-0.078
'0:01.303',-0.142,-0.01,-0.019,-0.034,-0.064,-0.088
'0:01.304',-0.134,-0.009,-0.02,-0.037,-0.068,-0.095
'0:01.305',-0.13,-0.01,-0.02,-0.038,-0.068,-0.098
'0:01.306',-0.129,-0.01,-0.018,-0.036,-0.064,-0.095
'0:01.307',-0.125,-0.01,-0.015,-0.031,-0.057,-0.087
'0:01.308',-0.117,-0.008,-0.011,-0.025,-0.046,-0.075
'0:01.309',-0.108,-0.007,-0.005,-0.016,-0.036,-0.059
'0:01.310',-0.106,-0.007,-0.001,-0.009,-0.025,-0.042
'0:01.311',-0.106,-0.008,0.002,-0.003,-0.015,-0.026
'0:01.312',-0.104,-0.01,0.005,0.001,-0.006,-0.012
'0:01.313',-0.106,-0.01,0.005,0.004,-0.001,-0.003
'0:01.314',-0.107,-0.011,0.005,0.005,0.002,0.002
'0:01.315',-0.107,-0.01,0.005,0.003,0.001,0.004
'0:01.316',-0.105,-0.01,0.002,0,-0.001,0.001
'0:01.317',-0.106,-0.01,-0.001,-0.005,-0.008,-0.006
'0:01.318',-0.111,-0.009,-0.005,-0.012,-0.017,-0.017
'0:01.319',-0.115,-0.008,-0.01,-0.018,-0.028,-0.031
'0:01.320',-0.109,-0.005,-0.013,-0.023,-0.038,-0.046
'0:01.321',-0.107,-0.003,-0.015,-0.028,-0.047,-0.06
'0:01.322',-0.115,0,-0.016,-0.03,-0.054,-0.073
'0:01.323',-0.116,0.001,-0.017,-0.033,-0.06,-0.082
'0:01.324',-0.117,0.002,-0.017,-0.034,-0.062,-0.089
'0:01.325',-0.122,0.001,-0.018,-0.034,-0.063,-0.091
'0:01.326',-0.122,0.001,-0.016,-0.031,-0.06,-0.088
'0:01.327',-0.118,0.002,-0.011,-0.025,-0.053,-0.082
'0:01.328',-0.117,0.003,-0.005,-0.018,-0.044,-0.07
'0:01.329',-0.117,0.004,0,-0.01,-0.032,-0.056
'0:01.330',-0.118,0.002,0.005,-0.003,-0.021,-0.042
'0:01.331',-0.119,-0.001,0.008,0.003,-0.011,-0.027
'0:01.332',-0.115,-0.003,0.01,0.007,-0.002,-0.015
'0:01.333',-0.111,-0.006,0.01,0.01,0.004,-0.005
'0:01.334',-0.111,-0.006,0.01,0.011,0.006,0.001
'0:01.335',-0.116,-0.006,0.008,0.011,0.005,0.002
'0:01.336',-0.115,-0.005,0.005,0.01,0,-0.002
'0:01.337',-0.109,-0.004,0.001,0.005,-0.008,-0.01
'0:01.338',-0.105,-0.003,-0.004,-0.002,-0.018,-0.022
'0:01.339',-0.105,-0.002,-0.009,-0.01,-0.029,-0.036
'0:01.340',-0.105,0,-0.012,-0.017,-0.039,-0.051
'0:01.341',-0.102,0.001,-0.014,-0.021,-0.048,-0.065
'0:01.342',-0.1,0.002,-0.016,-0.026,-0.055,-0.076
'0:01.343',-0.097,0.002,-0.017,-0.029,-0.06,-0.085
'0:01.344',-0.097,0.001,-0.019,-0.031,-0.061,-0.091
'0:01.345',-0.096,0,-0.019,-0.031,-0.06,-0.093
'0:01.346',-0.09,-0.001,-0.018,-0.029,-0.055,-0.09
'0:01.347',-0.086,-0.002,-0.015,-0.025,-0.048,-0.083
'0:01.348',-0.085,-0.003,-0.011,-0.019,-0.039,-0.073
'0:01.349',-0.08,-0.004,-0.009,-0.012,-0.028,-0.059
'0:01.350',-0.077,-0.006,-0.006,-0.006,-0.018,-0.044
'0:01.351',-0.077,-0.008,-0.003,-0.001,-0.008,-0.029
'0:01.352',-0.079,-0.01,-0.002,0.003,-0.001,-0.015
'0:01.353',-0.084,-0.011,0,0.007,0.006,-0.004
'0:01.354',-0.087,-0.01,0.002,0.01,0.01,0.005
'0:01.355',-0.09,-0.008,0.002,0.011,0.011,0.009
'0:01.356',-0.09,-0.006,0.002,0.009,0.008,0.007
'0:01.357',-0.082,-0.004,-0.001,0.006,0.002,0.002
'0:01.358',-0.076,-0.004,-0.005,-0.001,-0.006,-0.01
'0:01.359',-0.078,-0.004,-0.009,-0.008,-0.018,-0.026
'0:01.360',-0.076,-0.003,-0.012,-0.014,-0.029,-0.042
'0:01.361',-0.067,-0.003,-0.016,-0.019,-0.038,-0.057
'0:01.362',-0.061,-0.003,-0.019,-0.023,-0.046,-0.07
'0:01.363',-0.06,-0.004,-0.021,-0.026,-0.05,-0.08
'0:01.364',-0.063,-0.007,-0.023,-0.028,-0.053,-0.086
'0:01.365',-0.068,-0.009,-0.023,-0.028,-0.053,-0.087
'0:01.366',-0.07,-0.01,-0.021,-0.025,-0.051,-0.084
'0:01.367',-0.074,-0.009,-0.017,-0.019,-0.045,-0.077
'0:01.368',-0.082,-0.007,-0.01,-0.011,-0.037,-0.066
'0:01.369',-0.087,-0.005,-0.003,-0.004,-0.026,-0.051
'0:01.370',-0.088,-0.004,0.004,0.005,-0.015,-0.036
'0:01.371',-0.085,-0.005,0.007,0.011,-0.006,-0.021
'0:01.372',-0.073,-0.006,0.01,0.015,0.002,-0.01
'0:01.373',-0.065,-0.007,0.011,0.018,0.008,0
'0:01.374',-0.061,-0.008,0.011,0.019,0.011,0.006
'0:01.375',-0.056,-0.007,0.01,0.018,0.011,0.007
'0:01.376',-0.055,-0.007,0.007,0.015,0.008,0.006
'0:01.377',-0.054,-0.007,0.002,0.011,0.001,-0.001
'0:01.378',-0.052,-0.007,-0.002,0.003,-0.009,-0.011
'0:01.379',-0.052,-0.006,-0.007,-0.004,-0.019,-0.024
'0:01.380',-0.056,-0.005,-0.012,-0.011,-0.03,-0.038
'0:01.381',-0.058,-0.003,-0.015,-0.016,-0.039,-0.051
'0:01.382',-0.053,-0.003,-0.017,-0.021,-0.046,-0.063
'0:01.383',-0.048,-0.003,-0.018,-0.024,-0.051,-0.072
'0:01.384',-0.046,-0.003,-0.02,-0.026,-0.052,-0.078
'0:01.385',-0.045,-0.004,-0.02,-0.026,-0.052,-0.08
'0:01.386',-0.041,-0.006,-0.016,-0.024,-0.049,-0.077
'0:01.387',-0.04,-0.005,-0.011,-0.017,-0.042,-0.068
'0:01.388',-0.037,-0.004,-0.005,-0.01,-0.031,-0.056
'0:01.389',-0.032,-0.003,0.001,0,-0.017,-0.04
'0:01.390',-0.03,-0.003,0.006,0.01,-0.004,-0.021
'0:01.391',-0.029,-0.001,0.01,0.017,0.008,-0.003
'0:01.392',-0.027,0.001,0.012,0.023,0.017,0.012
'0:01.393',-0.027,0.004,0.014,0.027,0.024,0.024
'0:01.394',-0.025,0.007,0.016,0.031,0.028,0.034
'0:01.395',-0.026,0.01,0.015,0.032,0.029,0.037
'0:01.396',-0.032,0.012,0.015,0.031,0.028,0.036
'0:01.397',-0.027,0.014,0.011,0.028,0.021,0.029
'0:01.398',-0.019,0.015,0.007,0.022,0.013,0.017
'0:01.399',-0.019,0.018,0.003,0.015,0.003,0.002
'0:01.400',-0.02,0.022,0,0.009,-0.007,-0.015
'0:01.401',-0.017,0.026,-0.002,0.004,-0.015,-0.029
'0:01.402',-0.015,0.028,-0.003,0,-0.022,-0.042
'0:01.403',-0.015,0.029,-0.004,-0.003,-0.026,-0.051
'0:01.404',-0.014,0.028,-0.004,-0.005,-0.029,-0.056
'0:01.405',-0.009,0.023,-0.004,-0.005,-0.028,-0.057
'0:01.406',-0.005,0.017,-0.001,-0.003,-0.024,-0.053
'0:01.407',-0.002,0.012,0.002,0.002,-0.017,-0.044
'0:01.408',0.002,0.006,0.006,0.009,-0.008,-0.031
'0:01.409',0.008,0,0.01,0.016,0.003,-0.015
'0:01.410',0.01,-0.006,0.012,0.023,0.015,0.002
'0:01.411',0.009,-0.011,0.015,0.028,0.024,0.018
'0:01.412',0.012,-0.016,0.015,0.031,0.031,0.032
'0:01.413',0.019,-0.019,0.016,0.033,0.036,0.042
'0:01.414',0.03,-0.021,0.015,0.033,0.04,0.05
'0:01.415',0.037,-0.022,0.014,0.033,0.04,0.054
'0:01.416',0.037,-0.023,0.011,0.03,0.038,0.052
'0:01.417',0.038,-0.023,0.006,0.025,0.031,0.047
'0:01.418',0.043,-0.022,-0.001,0.019,0.022,0.037
'0:01.419',0.046,-0.021,-0.006,0.012,0.012,0.024
'0:01.420',0.054,-0.019,-0.01,0.005,0.002,0.011
'0:01.421',0.062,-0.017,-0.013,0,-0.007,-0.003
'0:01.422',0.059,-0.015,-0.015,-0.005,-0.014,-0.015
'0:01.423',0.056,-0.013,-0.016,-0.007,-0.018,-0.022
'0:01.424',0.064,-0.013,-0.016,-0.008,-0.019,-0.027
'0:01.425',0.073,-0.012,-0.015,-0.007,-0.018,-0.026
'0:01.426',0.083,-0.012,-0.014,-0.004,-0.014,-0.02
'0:01.427',0.086,-0.012,-0.01,0.001,-0.007,-0.011
'0:01.428',0.09,-0.013,-0.006,0.006,0.002,0.003
'0:01.429',0.096,-0.014,-0.001,0.013,0.015,0.021
'0:01.430',0.101,-0.016,0.002,0.019,0.026,0.038
'0:01.431',0.102,-0.019,0.005,0.024,0.036,0.054
'0:01.432',0.104,-0.022,0.006,0.028,0.044,0.068
'0:01.433',0.103,-0.023,0.007,0.03,0.05,0.079
'0:01.434',0.104,-0.022,0.009,0.03,0.052,0.086
'0:01.435',0.111,-0.02,0.009,0.031,0.053,0.09
'0:01.436',0.116,-0.018,0.007,0.028,0.051,0.089
'0:01.437',0.119,-0.017,0.003,0.025,0.046,0.084
'0:01.438',0.122,-0.017,-0.002,0.019,0.037,0.075
'0:01.439',0.123,-0.017,-0.007,0.012,0.028,0.063
'0:01.440',0.13,-0.016,-0.011,0.008,0.018,0.049
'0:01.441',0.141,-0.015,-0.014,0.004,0.011,0.037
'0:01.442',0.146,-0.013,-0.015,0.002,0.006,0.027
'0:01.443',0.149,-0.013,-0.015,0.001,0.003,0.02
'0:01.444',0.151,-0.014,-0.016,0,0.002,0.017
'0:01.445',0.157,-0.015,-0.016,0.001,0.005,0.018
'0:01.446',0.162,-0.015,-0.013,0.005,0.009,0.022
'0:01.447',0.163,-0.013,-0.009,0.01,0.019,0.03
'0:01.448',0.165,-0.012,-0.003,0.017,0.029,0.043
'0:01.449',0.176,-0.011,0.003,0.025,0.04,0.059
'0:01.450',0.186,-0.012,0.008,0.031,0.051,0.076
'0:01.451',0.192,-0.014,0.012,0.037,0.061,0.092
'0:01.452',0.197,-0.016,0.015,0.041,0.068,0.105
'0:01.453',0.199,-0.017,0.016,0.046,0.073,0.117
'0:01.454',0.207,-0.017,0.017,0.047,0.076,0.124
'0:01.455',0.219,-0.017,0.017,0.047,0.077,0.129
'0:01.456',0.22,-0.017,0.015,0.046,0.075,0.128
'0:01.457',0.227,-0.017,0.011,0.041,0.07,0.124
'0:01.458',0.235,-0.017,0.005,0.036,0.061,0.116
'0:01.459',0.239,-0.017,0,0.029,0.052,0.105
'0:01.460',0.245,-0.015,-0.004,0.023,0.044,0.092
'0:01.461',0.251,-0.013,-0.007,0.018,0.036,0.08
'0:01.462',0.253,-0.011,-0.009,0.014,0.029,0.069
'0:01.463',0.252,-0.01,-0.01,0.011,0.026,0.061
'0:01.464',0.25,-0.01,-0.011,0.01,0.025,0.058
'0:01.465',0.256,-0.011,-0.011,0.01,0.026,0.057
'0:01.466',0.262,-0.012,-0.008,0.012,0.031,0.063
'0:01.467',0.261,-0.012,-0.005,0.018,0.039,0.071
'0:01.468',0.257,-0.012,0,0.025,0.049,0.083
'0:01.469',0.258,-0.013,0.005,0.033,0.06,0.098
'0:01.470',0.261,-0.014,0.01,0.039,0.071,0.112
'0:01.471',0.262,-0.016,0.012,0.045,0.08,0.127
'0:01.472',0.264,-0.018,0.014,0.048,0.086,0.139
'0:01.473',0.267,-0.019,0.016,0.05,0.09,0.147
'0:01.474',0.271,-0.018,0.016,0.05,0.092,0.152
'0:01.475',0.272,-0.016,0.016,0.048,0.091,0.153
'0:01.476',0.267,-0.015,0.012,0.043,0.087,0.149
'0:01.477',0.268,-0.015,0.009,0.037,0.079,0.141
'0:01.478',0.27,-0.016,0.003,0.031,0.07,0.128
'0:01.479',0.264,-0.016,-0.001,0.024,0.058,0.113
'0:01.480',0.258,-0.016,-0.005,0.017,0.047,0.097
'0:01.481',0.261,-0.016,-0.009,0.011,0.037,0.081
'0:01.482',0.261,-0.014,-0.01,0.008,0.029,0.068
'0:01.483',0.253,-0.013,-0.01,0.005,0.024,0.056
'0:01.484',0.244,-0.013,-0.01,0.003,0.02,0.048
'0:01.485',0.236,-0.012,-0.009,0.003,0.018,0.042
'0:01.486',0.236,-0.012,-0.007,0.005,0.019,0.041
'0:01.487',0.231,-0.011,-0.002,0.008,0.024,0.045
'0:01.488',0.224,-0.009,0.002,0.014,0.031,0.053
'0:01.489',0.22,-0.008,0.007,0.021,0.039,0.065
'0:01.490',0.216,-0.007,0.012,0.028,0.05,0.079
'0:01.491',0.21,-0.008,0.016,0.035,0.057,0.093
'0:01.492',0.2,-0.008,0.019,0.039,0.062,0.103
'0:01.493',0.188,-0.008,0.022,0.042,0.067,0.11
'0:01.494',0.177,-0.005,0.025,0.045,0.068,0.113
'0:01.495',0.166,-0.002,0.027,0.046,0.068,0.112
'0:01.496',0.155,0.002,0.027,0.046,0.065,0.107
'0:01.497',0.152,0.005,0.026,0.041,0.058,0.096
'0:01.498',0.148,0.007,0.022,0.034,0.048,0.082
'0:01.499',0.137,0.007,0.017,0.025,0.035,0.064
'0:01.500',0.127,0.007,0.011,0.014,0.02,0.043
'0:01.501',0.122,0.007,0.006,0.005,0.008,0.024
'0:01.502',0.121,0.006,0.002,-0.003,-0.005,0.006
'0:01.503',0.122,0.004,-0.003,-0.011,-0.016,-0.009
'0:01.504',0.122,-0.001,-0.009,-0.019,-0.026,-0.02
'0:01.505',0.121,-0.006,-0.016,-0.027,-0.035,-0.03
'0:01.506',0.116,-0.015,-0.026,-0.037,-0.043,-0.037
'0:01.507',0.106,-0.024,-0.037,-0.048,-0.051,-0.044
'0:01.508',0.1,-0.037,-0.054,-0.062,-0.061,-0.049
'0:01.509',0.095,-0.054,-0.072,-0.077,-0.072,-0.053
'0:01.510',0.083,-0.074,-0.094,-0.095,-0.083,-0.057
'0:01.511',0.07,-0.093,-0.117,-0.115,-0.096,-0.061
'0:01.512',0.065,-0.111,-0.139,-0.133,-0.107,-0.064
'0:01.513',0.057,-0.126,-0.156,-0.146,-0.116,-0.068
'0:01.514',0.05,-0.132,-0.166,-0.153,-0.12,-0.068
'0:01.515',0.04,-0.132,-0.168,-0.153,-0.118,-0.067
'0:01.516',0.03,-0.126,-0.163,-0.144,-0.112,-0.065
'0:01.517',0.027,-0.113,-0.152,-0.132,-0.103,-0.062
'0:01.518',0.026,-0.096,-0.135,-0.116,-0.091,-0.06
'0:01.519',0.017,-0.076,-0.115,-0.097,-0.08,-0.06
'0:01.520',0.007,-0.056,-0.094,-0.079,-0.07,-0.061
'0:01.521',0.002,-0.037,-0.074,-0.063,-0.061,-0.063
'0:01.522',-0.002,-0.021,-0.056,-0.048,-0.054,-0.064
'0:01.523',-0.007,-0.008,-0.04,-0.037,-0.049,-0.064
'0:01.524',-0.016,0.001,-0.027,-0.028,-0.042,-0.061
'0:01.525',-0.021,0.008,-0.016,-0.018,-0.036,-0.056
'0:01.526',-0.019,0.015,-0.005,-0.008,-0.028,-0.048
'0:01.527',-0.021,0.019,0.006,0.001,-0.018,-0.037
'0:01.528',-0.028,0.023,0.015,0.01,-0.008,-0.024
'0:01.529',-0.026,0.025,0.023,0.017,0.002,-0.011
'0:01.530',-0.029,0.026,0.029,0.022,0.011,0.002
'0:01.531',-0.035,0.026,0.032,0.025,0.018,0.014
'0:01.532',-0.034,0.025,0.034,0.027,0.021,0.023
'0:01.533',-0.031,0.026,0.036,0.028,0.024,0.031
'0:01.534',-0.028,0.028,0.035,0.028,0.024,0.034
'0:01.535',-0.025,0.03,0.034,0.028,0.022,0.035
'0:01.536',-0.024,0.031,0.031,0.025,0.019,0.032
'0:01.537',-0.021,0.033,0.027,0.02,0.012,0.024
'0:01.538',-0.021,0.033,0.022,0.013,0.002,0.012
'0:01.539',-0.025,0.034,0.017,0.006,-0.008,-0.003
'0:01.540',-0.023,0.036,0.011,-0.001,-0.019,-0.019
'0:01.541',-0.021,0.038,0.009,-0.007,-0.028,-0.033
'0:01.542',-0.021,0.04,0.006,-0.011,-0.035,-0.045
'0:01.543',-0.026,0.043,0.005,-0.014,-0.039,-0.054
'0:01.544',-0.031,0.045,0.004,-0.015,-0.041,-0.06
'0:01.545',-0.031,0.046,0.005,-0.015,-0.042,-0.061
'0:01.546',-0.03,0.047,0.006,-0.012,-0.038,-0.059
'0:01.547',-0.031,0.048,0.01,-0.008,-0.031,-0.052
'0:01.548',-0.028,0.047,0.015,-0.001,-0.021,-0.041
'0:01.549',-0.024,0.045,0.019,0.006,-0.009,-0.026
'0:01.550',-0.024,0.039,0.021,0.012,0.001,-0.011
'0:01.551',-0.02,0.032,0.022,0.017,0.009,0.004
'0:01.552',-0.015,0.025,0.022,0.022,0.016,0.016
'0:01.553',-0.02,0.02,0.022,0.025,0.019,0.026
'0:01.554',-0.022,0.016,0.021,0.027,0.022,0.031
'0:01.555',-0.023,0.015,0.021,0.027,0.021,0.033
'0:01.556',-0.03,0.013,0.019,0.025,0.018,0.031
'0:01.557',-0.033,0.011,0.015,0.021,0.011,0.022
'0:01.558',-0.03,0.009,0.01,0.014,0.001,0.011
'0:01.559',-0.027,0.008,0.005,0.008,-0.009,-0.005
'0:01.560',-0.03,0.009,0.001,0,-0.019,-0.02
'0:01.561',-0.036,0.011,-0.001,-0.005,-0.028,-0.032
'0:01.562',-0.037,0.013,-0.001,-0.008,-0.034,-0.044
'0:01.563',-0.032,0.016,-0.002,-0.01,-0.036,-0.052
'0:01.564',-0.032,0.017,-0.001,-0.011,-0.037,-0.057
'0:01.565',-0.033,0.019,0.001,-0.01,-0.036,-0.057
'0:01.566',-0.035,0.019,0.005,-0.007,-0.031,-0.054
'0:01.567',-0.036,0.02,0.01,-0.003,-0.023,-0.046
'0:01.568',-0.04,0.021,0.015,0.003,-0.013,-0.036
'0:01.569',-0.042,0.022,0.02,0.01,-0.003,-0.021
'0:01.570',-0.046,0.022,0.025,0.014,0.007,-0.005
'0:01.571',-0.049,0.021,0.027,0.018,0.017,0.011
'0:01.572',-0.046,0.021,0.029,0.022,0.024,0.025
'0:01.573',-0.046,0.022,0.03,0.024,0.029,0.037
'0:01.574',-0.047,0.024,0.031,0.025,0.031,0.044
'0:01.575',-0.046,0.026,0.029,0.025,0.031,0.047
'0:01.576',-0.048,0.028,0.026,0.022,0.028,0.044
'0:01.577',-0.051,0.028,0.022,0.017,0.02,0.037
'0:01.578',-0.051,0.029,0.017,0.011,0.01,0.024
'0:01.579',-0.054,0.028,0.013,0.005,-0.001,0.01
'0:01.580',-0.056,0.029,0.01,-0.002,-0.011,-0.006
'0:01.581',-0.051,0.029,0.007,-0.007,-0.021,-0.02
'0:01.582',-0.05,0.031,0.005,-0.012,-0.028,-0.032
'0:01.583',-0.052,0.03,0.003,-0.015,-0.032,-0.041
'0:01.584',-0.054,0.029,0.002,-0.016,-0.035,-0.046
'0:01.585',-0.052,0.028,0.002,-0.016,-0.032,-0.047
'0:01.586',-0.05,0.027,0.005,-0.013,-0.028,-0.042
'0:01.587',-0.051,0.026,0.01,-0.008,-0.021,-0.035
'0:01.588',-0.052,0.028,0.015,-0.001,-0.012,-0.024
'0:01.589',-0.051,0.029,0.021,0.007,-0.002,-0.01
'0:01.590',-0.056,0.029,0.026,0.013,0.008,0.006
'0:01.591',-0.06,0.028,0.029,0.019,0.016,0.02
'0:01.592',-0.057,0.029,0.032,0.024,0.024,0.031
'0:01.593',-0.057,0.029,0.034,0.028,0.028,0.041
'0:01.594',-0.056,0.03,0.035,0.03,0.031,0.048
'0:01.595',-0.052,0.031,0.036,0.031,0.032,0.049
'0:01.596',-0.052,0.032,0.035,0.028,0.029,0.047
'0:01.597',-0.052,0.031,0.031,0.024,0.023,0.039
'0:01.598',-0.053,0.03,0.026,0.016,0.015,0.027
'0:01.599',-0.057,0.03,0.021,0.008,0.003,0.01
'0:01.600',-0.057,0.031,0.016,0,-0.008,-0.008
'0:01.601',-0.057,0.032,0.012,-0.006,-0.018,-0.023
'0:01.602',-0.058,0.035,0.011,-0.011,-0.026,-0.036
'0:01.603',-0.056,0.035,0.009,-0.013,-0.031,-0.042
'0:01.604',-0.053,0.033,0.008,-0.014,-0.035,-0.046
'0:01.605',-0.051,0.031,0.007,-0.014,-0.033,-0.046
'0:01.606',-0.05,0.029,0.009,-0.011,-0.028,-0.042
'0:01.607',-0.05,0.028,0.012,-0.007,-0.021,-0.032
'0:01.608',-0.05,0.026,0.016,0,-0.01,-0.02
'0:01.609',-0.045,0.025,0.02,0.008,0.002,-0.005
'0:01.610',-0.04,0.024,0.025,0.014,0.013,0.011
'0:01.611',-0.041,0.022,0.027,0.021,0.023,0.026
'0:01.612',-0.047,0.021,0.029,0.026,0.032,0.038
'0:01.613',-0.048,0.022,0.031,0.029,0.037,0.047
'0:01.614',-0.044,0.024,0.032,0.03,0.039,0.052
'0:01.615',-0.042,0.026,0.032,0.031,0.039,0.053
'0:01.616',-0.047,0.027,0.031,0.028,0.033,0.049
'0:01.617',-0.05,0.028,0.027,0.022,0.026,0.041
'0:01.618',-0.05,0.028,0.023,0.015,0.016,0.029
'0:01.619',-0.048,0.028,0.019,0.01,0.005,0.015
'0:01.620',-0.043,0.03,0.015,0.004,-0.005,0
'0:01.621',-0.046,0.031,0.012,-0.002,-0.013,-0.015
'0:01.622',-0.05,0.033,0.011,-0.005,-0.019,-0.026
'0:01.623',-0.049,0.033,0.009,-0.008,-0.023,-0.034
'0:01.624',-0.049,0.033,0.007,-0.01,-0.025,-0.039
'0:01.625',-0.05,0.032,0.007,-0.01,-0.024,-0.041
'0:01.626',-0.05,0.032,0.01,-0.006,-0.019,-0.038
'0:01.627',-0.05,0.033,0.015,-0.001,-0.015,-0.031
'0:01.628',-0.049,0.033,0.02,0.006,-0.006,-0.02
'0:01.629',-0.05,0.031,0.025,0.012,0.005,-0.007
'0:01.630',-0.054,0.031,0.029,0.019,0.013,0.007
'0:01.631',-0.061,0.028,0.032,0.025,0.022,0.021
'0:01.632',-0.059,0.026,0.034,0.029,0.028,0.031
'0:01.633',-0.055,0.026,0.035,0.033,0.033,0.039
'0:01.634',-0.057,0.025,0.036,0.034,0.037,0.044
'0:01.635',-0.059,0.026,0.036,0.034,0.037,0.046
'0:01.636',-0.055,0.026,0.032,0.031,0.033,0.042
'0:01.637',-0.046,0.027,0.029,0.026,0.026,0.036
'0:01.638',-0.04,0.028,0.024,0.019,0.016,0.024
'0:01.639',-0.042,0.028,0.018,0.01,0.004,0.009
'0:01.640',-0.044,0.03,0.014,0.003,-0.008,-0.007
'0:01.641',-0.046,0.033,0.011,-0.004,-0.018,-0.022
'0:01.642',-0.044,0.034,0.01,-0.008,-0.025,-0.034
'0:01.643',-0.04,0.035,0.009,-0.011,-0.031,-0.044
'0:01.644',-0.041,0.033,0.008,-0.012,-0.034,-0.049
'0:01.645',-0.047,0.031,0.008,-0.012,-0.032,-0.049
'0:01.646',-0.05,0.029,0.01,-0.009,-0.029,-0.044
'0:01.647',-0.051,0.029,0.013,-0.005,-0.02,-0.035
'0:01.648',-0.051,0.028,0.017,0.002,-0.009,-0.021
'0:01.649',-0.046,0.028,0.021,0.01,0.002,-0.005
'0:01.650',-0.046,0.026,0.025,0.016,0.013,0.011
'0:01.651',-0.048,0.022,0.026,0.021,0.022,0.025
'0:01.652',-0.046,0.02,0.028,0.025,0.028,0.036
'0:01.653',-0.041,0.018,0.029,0.027,0.032,0.044
'0:01.654',-0.041,0.017,0.03,0.028,0.035,0.048
'0:01.655',-0.046,0.018,0.029,0.027,0.034,0.049
'0:01.656',-0.047,0.018,0.027,0.025,0.03,0.044
'0:01.657',-0.046,0.018,0.024,0.019,0.022,0.036
'0:01.658',-0.047,0.017,0.018,0.012,0.013,0.024
'0:01.659',-0.052,0.018,0.014,0.006,0.002,0.01
'0:01.660',-0.049,0.019,0.01,0,-0.007,-0.004
'0:01.661',-0.042,0.022,0.007,-0.005,-0.015,-0.016
'0:01.662',-0.045,0.022,0.006,-0.008,-0.021,-0.027
'0:01.663',-0.052,0.021,0.004,-0.011,-0.025,-0.036
'0:01.664',-0.052,0.02,0.002,-0.011,-0.028,-0.041
'0:01.665',-0.046,0.017,0.002,-0.011,-0.026,-0.042
'0:01.666',-0.051,0.017,0.004,-0.008,-0.022,-0.039
'0:01.667',-0.058,0.016,0.007,-0.004,-0.015,-0.032
'0:01.668',-0.059,0.016,0.012,0.003,-0.006,-0.021
'0:01.669',-0.054,0.015,0.017,0.009,0.002,-0.008
'0:01.670',-0.054,0.014,0.021,0.014,0.011,0.005
'0:01.671',-0.056,0.012,0.023,0.018,0.018,0.018
'0:01.672',-0.053,0.011,0.023,0.021,0.025,0.029
'0:01.673',-0.051,0.01,0.024,0.023,0.028,0.037
'0:01.674',-0.052,0.01,0.025,0.024,0.031,0.042
'0:01.675',-0.057,0.01,0.023,0.023,0.031,0.042
'0:01.676',-0.061,0.01,0.021,0.02,0.027,0.039
'0:01.677',-0.06,0.01,0.017,0.016,0.021,0.031
'0:01.678',-0.055,0.01,0.012,0.01,0.012,0.02
'0:01.679',-0.057,0.011,0.009,0.003,0.001,0.005
'0:01.680',-0.062,0.013,0.005,-0.005,-0.009,-0.011
'0:01.681',-0.062,0.016,0.003,-0.011,-0.019,-0.026
'0:01.682',-0.06,0.018,0.001,-0.014,-0.026,-0.038
'0:01.683',-0.059,0.018,-0.001,-0.018,-0.031,-0.049
'0:01.684',-0.062,0.017,-0.002,-0.019,-0.034,-0.054
'0:01.685',-0.064,0.015,-0.002,-0.019,-0.035,-0.057
'0:01.686',-0.06,0.013,-0.001,-0.017,-0.031,-0.054
'0:01.687',-0.063,0.013,0.001,-0.012,-0.025,-0.046
'0:01.688',-0.065,0.013,0.005,-0.005,-0.016,-0.034
'0:01.689',-0.06,0.013,0.01,0.002,-0.006,-0.021
'0:01.690',-0.054,0.012,0.012,0.008,0.005,-0.005
'0:01.691',-0.056,0.011,0.015,0.012,0.012,0.01
'0:01.692',-0.057,0.01,0.016,0.016,0.02,0.021
'0:01.693',-0.06,0.01,0.017,0.018,0.024,0.03
'0:01.694',-0.061,0.01,0.019,0.019,0.027,0.036
'0:01.695',-0.062,0.01,0.02,0.019,0.026,0.037
'0:01.696',-0.062,0.011,0.017,0.016,0.023,0.034
'0:01.697',-0.062,0.012,0.015,0.011,0.017,0.027
'0:01.698',-0.062,0.013,0.009,0.004,0.007,0.016
'0:01.699',-0.066,0.013,0.005,-0.003,-0.005,0.001
'0:01.700',-0.067,0.013,0.001,-0.01,-0.016,-0.015
'0:01.701',-0.071,0.013,-0.003,-0.016,-0.026,-0.03
'0:01.702',-0.077,0.014,-0.005,-0.019,-0.035,-0.042
'0:01.703',-0.079,0.014,-0.007,-0.023,-0.039,-0.052
'0:01.704',-0.082,0.013,-0.007,-0.025,-0.041,-0.057
'0:01.705',-0.081,0.012,-0.007,-0.024,-0.041,-0.058
'0:01.706',-0.076,0.013,-0.006,-0.021,-0.036,-0.054
'0:01.707',-0.077,0.014,-0.001,-0.015,-0.029,-0.046
'0:01.708',-0.08,0.016,0.005,-0.007,-0.019,-0.033
'0:01.709',-0.079,0.016,0.01,0.001,-0.007,-0.019
'0:01.710',-0.081,0.016,0.015,0.008,0.005,-0.003
'0:01.711',-0.083,0.015,0.019,0.014,0.013,0.011
'0:01.712',-0.084,0.015,0.021,0.018,0.019,0.022
'0:01.713',-0.08,0.014,0.023,0.02,0.023,0.031
'0:01.714',-0.073,0.014,0.024,0.021,0.025,0.036
'0:01.715',-0.074,0.015,0.022,0.02,0.024,0.036
'0:01.716',-0.082,0.013,0.019,0.017,0.019,0.032
'0:01.717',-0.085,0.013,0.014,0.012,0.011,0.025
'0:01.718',-0.084,0.012,0.009,0.005,0.002,0.012
'0:01.719',-0.086,0.013,0.004,-0.003,-0.009,-0.002
'0:01.720',-0.088,0.015,0,-0.009,-0.019,-0.017
'0:01.721',-0.087,0.017,-0.002,-0.014,-0.027,-0.032
'0:01.722',-0.087,0.019,-0.003,-0.018,-0.032,-0.045
'0:01.723',-0.083,0.021,-0.003,-0.02,-0.037,-0.055
'0:01.724',-0.081,0.022,-0.004,-0.021,-0.039,-0.062
'0:01.725',-0.08,0.022,-0.002,-0.019,-0.038,-0.064
'0:01.726',-0.08,0.021,0,-0.016,-0.036,-0.061
'0:01.727',-0.085,0.021,0.004,-0.012,-0.028,-0.053
'0:01.728',-0.087,0.021,0.008,-0.005,-0.019,-0.041
'0:01.729',-0.087,0.02,0.014,0.002,-0.008,-0.026
'0:01.730',-0.092,0.019,0.018,0.008,0.002,-0.01
'0:01.731',-0.098,0.018,0.022,0.014,0.012,0.003
'0:01.732',-0.099,0.017,0.025,0.02,0.019,0.015
'0:01.733',-0.097,0.017,0.028,0.023,0.025,0.022
'0:01.734',-0.1,0.019,0.03,0.026,0.027,0.027
'0:01.735',-0.098,0.02,0.031,0.027,0.026,0.028
'0:01.736',-0.092,0.022,0.029,0.025,0.024,0.025
'0:01.737',-0.083,0.022,0.026,0.019,0.016,0.017
'0:01.738',-0.08,0.023,0.02,0.012,0.007,0.007
'0:01.739',-0.08,0.024,0.015,0.005,-0.005,-0.007
'0:01.740',-0.073,0.026,0.01,-0.002,-0.015,-0.021
'0:01.741',-0.066,0.027,0.006,-0.008,-0.023,-0.034
'0:01.742',-0.066,0.028,0.003,-0.013,-0.03,-0.047
'0:01.743',-0.072,0.027,0.001,-0.017,-0.035,-0.055
'0:01.744',-0.079,0.025,-0.001,-0.019,-0.037,-0.06
'0:01.745',-0.08,0.024,0.001,-0.019,-0.036,-0.061
'0:01.746',-0.075,0.023,0.003,-0.016,-0.031,-0.057
'0:01.747',-0.08,0.024,0.01,-0.009,-0.022,-0.048
'0:01.748',-0.086,0.025,0.016,-0.001,-0.011,-0.036
'0:01.749',-0.084,0.025,0.021,0.008,0.001,-0.021
'0:01.750',-0.077,0.023,0.026,0.014,0.012,-0.006
'0:01.751',-0.076,0.022,0.027,0.021,0.021,0.007
'0:01.752',-0.081,0.022,0.029,0.026,0.028,0.02
'0:01.753',-0.086,0.022,0.029,0.028,0.031,0.028
'0:01.754',-0.087,0.023,0.029,0.029,0.033,0.032
'0:01.755',-0.09,0.024,0.029,0.028,0.031,0.033
'0:01.756',-0.095,0.026,0.027,0.025,0.025,0.029
'0:01.757',-0.097,0.026,0.024,0.019,0.018,0.021
'0:01.758',-0.096,0.025,0.02,0.012,0.008,0.007
'0:01.759',-0.101,0.025,0.015,0.005,-0.003,-0.007
'0:01.760',-0.1,0.026,0.012,-0.001,-0.015,-0.023
'0:01.761',-0.095,0.028,0.01,-0.007,-0.023,-0.037
'0:01.762',-0.092,0.029,0.007,-0.011,-0.029,-0.049
'0:01.763',-0.094,0.029,0.006,-0.014,-0.032,-0.056
'0:01.764',-0.095,0.028,0.005,-0.016,-0.035,-0.06
'0:01.765',-0.093,0.026,0.004,-0.016,-0.032,-0.059
'0:01.766',-0.09,0.026,0.006,-0.014,-0.028,-0.055
'0:01.767',-0.091,0.027,0.01,-0.008,-0.021,-0.046
'0:01.768',-0.088,0.028,0.015,-0.001,-0.012,-0.034
'0:01.769',-0.081,0.028,0.021,0.007,-0.001,-0.02
'0:01.770',-0.081,0.026,0.026,0.014,0.008,-0.005
'0:01.771',-0.082,0.024,0.029,0.02,0.018,0.008
'0:01.772',-0.077,0.023,0.03,0.023,0.024,0.018
'0:01.773',-0.072,0.022,0.032,0.024,0.028,0.024
'0:01.774',-0.068,0.022,0.031,0.023,0.028,0.027
'0:01.775',-0.07,0.023,0.029,0.021,0.026,0.026
'0:01.776',-0.077,0.023,0.025,0.016,0.021,0.021
'0:01.777',-0.078,0.022,0.021,0.01,0.011,0.01
'0:01.778',-0.077,0.021,0.015,0.002,0.001,-0.003
'0:01.779',-0.081,0.02,0.01,-0.006,-0.011,-0.017
'0:01.780',-0.087,0.02,0.005,-0.012,-0.022,-0.032
'0:01.781',-0.091,0.02,0.001,-0.017,-0.03,-0.046
'0:01.782',-0.091,0.02,-0.002,-0.022,-0.037,-0.057
'0:01.783',-0.086,0.019,-0.003,-0.023,-0.041,-0.064
'0:01.784',-0.087,0.019,-0.003,-0.023,-0.042,-0.068
'0:01.785',-0.09,0.019,-0.001,-0.021,-0.04,-0.068
'0:01.786',-0.089,0.02,0.002,-0.016,-0.035,-0.064
'0:01.787',-0.087,0.021,0.007,-0.011,-0.027,-0.056
'0:01.788',-0.084,0.021,0.013,-0.004,-0.017,-0.044
'0:01.789',-0.08,0.021,0.017,0.003,-0.006,-0.029
'0:01.790',-0.081,0.017,0.019,0.007,0.003,-0.015
'0:01.791',-0.085,0.015,0.019,0.01,0.011,-0.001
'0:01.792',-0.085,0.012,0.019,0.011,0.016,0.01
'0:01.793',-0.084,0.011,0.018,0.011,0.018,0.017
'0:01.794',-0.081,0.012,0.017,0.011,0.017,0.021
'0:01.795',-0.082,0.013,0.016,0.01,0.014,0.02
'0:01.796',-0.086,0.013,0.012,0.006,0.008,0.016
'0:01.797',-0.082,0.014,0.009,0.001,-0.001,0.006
'0:01.798',-0.076,0.013,0.004,-0.006,-0.01,-0.005
'0:01.799',-0.072,0.014,0,-0.012,-0.019,-0.017
'0:01.800',-0.068,0.016,-0.002,-0.017,-0.028,-0.031
'0:01.801',-0.066,0.017,-0.005,-0.021,-0.033,-0.042
'0:01.802',-0.066,0.018,-0.006,-0.024,-0.038,-0.052
'0:01.803',-0.059,0.017,-0.009,-0.026,-0.042,-0.059
'0:01.804',-0.054,0.015,-0.011,-0.027,-0.044,-0.063
'0:01.805',-0.052,0.011,-0.013,-0.028,-0.044,-0.064
'0:01.806',-0.052,0.007,-0.013,-0.028,-0.04,-0.06
'0:01.807',-0.055,0.004,-0.011,-0.025,-0.034,-0.052
'0:01.808',-0.056,0.001,-0.008,-0.019,-0.025,-0.04
'0:01.809',-0.053,-0.001,-0.005,-0.012,-0.015,-0.026
'0:01.810',-0.052,-0.003,-0.001,-0.006,-0.004,-0.01
'0:01.811',-0.057,-0.003,0.002,0,0.006,0.005
'0:01.812',-0.065,-0.004,0.005,0.005,0.014,0.017
'0:01.813',-0.066,-0.003,0.007,0.01,0.02,0.026
'0:01.814',-0.06,0,0.01,0.012,0.023,0.032
'0:01.815',-0.054,0.003,0.012,0.012,0.024,0.033
'0:01.816',-0.057,0.004,0.012,0.011,0.021,0.03
'0:01.817',-0.057,0.005,0.01,0.006,0.014,0.022
'0:01.818',-0.056,0.006,0.007,-0.001,0.006,0.011
'0:01.819',-0.06,0.007,0.004,-0.008,-0.005,-0.002
'0:01.820',-0.062,0.008,0,-0.014,-0.016,-0.017
'0:01.821',-0.062,0.01,-0.003,-0.02,-0.025,-0.032
'0:01.822',-0.061,0.011,-0.007,-0.025,-0.032,-0.046
'0:01.823',-0.064,0.012,-0.01,-0.029,-0.038,-0.054
'0:01.824',-0.066,0.011,-0.011,-0.03,-0.041,-0.061
'0:01.825',-0.062,0.01,-0.011,-0.03,-0.042,-0.064
'0:01.826',-0.059,0.008,-0.01,-0.029,-0.039,-0.061
'0:01.827',-0.066,0.007,-0.006,-0.025,-0.032,-0.055
'0:01.828',-0.071,0.006,0,-0.019,-0.024,-0.044
'0:01.829',-0.066,0.006,0.006,-0.012,-0.013,-0.031
'0:01.830',-0.06,0.006,0.011,-0.006,-0.002,-0.016
'0:01.831',-0.057,0.005,0.015,-0.001,0.007,-0.001
'0:01.832',-0.054,0.004,0.017,0.005,0.015,0.013
'0:01.833',-0.05,0.004,0.019,0.008,0.021,0.022
'0:01.834',-0.048,0.004,0.019,0.01,0.023,0.029
'0:01.835',-0.05,0.004,0.016,0.01,0.023,0.031
'0:01.836',-0.049,0.004,0.011,0.006,0.018,0.027
'0:01.837',-0.046,0.003,0.006,0,0.009,0.019
'0:01.838',-0.042,0.001,-0.001,-0.008,-0.001,0.005
'0:01.839',-0.042,0.001,-0.007,-0.016,-0.013,-0.011
'0:01.840',-0.039,0,-0.012,-0.025,-0.026,-0.027
'0:01.841',-0.041,0.001,-0.016,-0.031,-0.036,-0.042
'0:01.842',-0.045,0.001,-0.019,-0.036,-0.044,-0.055
'0:01.843',-0.051,0.001,-0.021,-0.039,-0.049,-0.064
'0:01.844',-0.057,-0.001,-0.022,-0.041,-0.051,-0.068
'0:01.845',-0.061,-0.001,-0.021,-0.039,-0.05,-0.069
'0:01.846',-0.065,0,-0.017,-0.035,-0.044,-0.066
'0:01.847',-0.068,0.003,-0.011,-0.028,-0.036,-0.059
'0:01.848',-0.071,0.005,-0.003,-0.021,-0.025,-0.05
'0:01.849',-0.068,0.008,0.004,-0.012,-0.013,-0.039
'0:01.850',-0.071,0.009,0.01,-0.005,-0.004,-0.026
'0:01.851',-0.077,0.009,0.013,0,0.005,-0.013
'0:01.852',-0.082,0.009,0.016,0.005,0.012,-0.002
'0:01.853',-0.085,0.01,0.017,0.008,0.016,0.007
'0:01.854',-0.089,0.013,0.018,0.01,0.018,0.013
'0:01.855',-0.092,0.016,0.019,0.011,0.017,0.015
'0:01.856',-0.097,0.017,0.016,0.008,0.012,0.012
'0:01.857',-0.094,0.019,0.012,0.003,0.005,0.005
'0:01.858',-0.093,0.02,0.007,-0.004,-0.006,-0.009
'0:01.859',-0.097,0.02,0.002,-0.011,-0.017,-0.024
'0:01.860',-0.102,0.02,-0.002,-0.018,-0.028,-0.042
'0:01.861',-0.107,0.021,-0.005,-0.023,-0.038,-0.058
'0:01.862',-0.108,0.021,-0.007,-0.028,-0.045,-0.07
'0:01.863',-0.105,0.022,-0.007,-0.031,-0.05,-0.078
'0:01.864',-0.104,0.022,-0.007,-0.031,-0.051,-0.083
'0:01.865',-0.102,0.023,-0.005,-0.031,-0.05,-0.082
'0:01.866',-0.102,0.025,-0.001,-0.026,-0.044,-0.077
'0:01.867',-0.105,0.028,0.006,-0.019,-0.035,-0.068
'0:01.868',-0.108,0.029,0.012,-0.01,-0.024,-0.054
'0:01.869',-0.105,0.03,0.019,-0.001,-0.012,-0.039
'0:01.870',-0.102,0.03,0.024,0.006,-0.001,-0.023
'0:01.871',-0.105,0.028,0.026,0.012,0.008,-0.008
'0:01.872',-0.106,0.026,0.027,0.016,0.014,0.003
'0:01.873',-0.105,0.024,0.026,0.017,0.018,0.012
'0:01.874',-0.102,0.023,0.025,0.018,0.019,0.016
'0:01.875',-0.106,0.022,0.023,0.017,0.018,0.017
'0:01.876',-0.115,0.021,0.021,0.015,0.015,0.013
'0:01.877',-0.117,0.021,0.018,0.01,0.008,0.006
'0:01.878',-0.116,0.02,0.014,0.004,-0.002,-0.007
'0:01.879',-0.115,0.021,0.011,-0.003,-0.011,-0.022
'0:01.880',-0.112,0.023,0.009,-0.008,-0.021,-0.037
'0:01.881',-0.109,0.026,0.006,-0.011,-0.029,-0.052
'0:01.882',-0.107,0.028,0.005,-0.015,-0.037,-0.064
'0:01.883',-0.106,0.031,0.005,-0.017,-0.041,-0.072
'0:01.884',-0.104,0.032,0.005,-0.017,-0.043,-0.075
'0:01.885',-0.1,0.033,0.005,-0.016,-0.042,-0.075
'0:01.886',-0.095,0.034,0.008,-0.012,-0.038,-0.069
'0:01.887',-0.095,0.035,0.012,-0.006,-0.031,-0.061
'0:01.888',-0.098,0.035,0.017,0.001,-0.02,-0.047
'0:01.889',-0.098,0.035,0.023,0.01,-0.009,-0.032
'0:01.890',-0.099,0.033,0.027,0.017,0.003,-0.017
'0:01.891',-0.102,0.031,0.031,0.023,0.013,-0.003
'0:01.892',-0.106,0.031,0.034,0.028,0.022,0.008
'0:01.893',-0.109,0.032,0.036,0.032,0.028,0.017
'0:01.894',-0.105,0.034,0.039,0.034,0.031,0.024
'0:01.895',-0.106,0.038,0.039,0.035,0.03,0.025
'0:01.896',-0.106,0.04,0.038,0.034,0.026,0.022
'0:01.897',-0.101,0.042,0.036,0.028,0.019,0.014
'0:01.898',-0.1,0.042,0.031,0.022,0.009,0.001
'0:01.899',-0.107,0.042,0.026,0.014,-0.002,-0.015
'0:01.900',-0.107,0.044,0.021,0.006,-0.015,-0.03
'0:01.901',-0.106,0.046,0.018,0.001,-0.025,-0.044
'0:01.902',-0.108,0.047,0.016,-0.003,-0.031,-0.057
'0:01.903',-0.107,0.047,0.013,-0.005,-0.036,-0.066
'0:01.904',-0.109,0.047,0.012,-0.007,-0.038,-0.069
'0:01.905',-0.113,0.046,0.012,-0.006,-0.036,-0.071
'0:01.906',-0.112,0.046,0.015,-0.004,-0.032,-0.068
'0:01.907',-0.111,0.046,0.019,0.001,-0.025,-0.06
'0:01.908',-0.107,0.045,0.024,0.006,-0.016,-0.049
'0:01.909',-0.1,0.044,0.028,0.012,-0.006,-0.035
'0:01.910',-0.097,0.041,0.032,0.017,0.004,-0.02
'0:01.911',-0.1,0.04,0.034,0.023,0.012,-0.006
'0:01.912',-0.096,0.037,0.036,0.026,0.019,0.006
'0:01.913',-0.09,0.037,0.036,0.029,0.025,0.013
'0:01.914',-0.086,0.036,0.036,0.031,0.027,0.017
'0:01.915',-0.086,0.037,0.035,0.031,0.026,0.017
'0:01.916',-0.086,0.038,0.032,0.028,0.022,0.012
'0:01.917',-0.082,0.038,0.027,0.023,0.016,0.004
'0:01.918',-0.078,0.038,0.022,0.016,0.005,-0.009
'0:01.919',-0.079,0.038,0.017,0.008,-0.006,-0.022
'0:01.920',-0.076,0.038,0.012,-0.001,-0.018,-0.037
'0:01.921',-0.071,0.04,0.01,-0.008,-0.027,-0.051
'0:01.922',-0.071,0.04,0.007,-0.012,-0.033,-0.062
'0:01.923',-0.071,0.04,0.006,-0.016,-0.038,-0.071
'0:01.924',-0.072,0.038,0.005,-0.017,-0.039,-0.076
'0:01.925',-0.067,0.036,0.005,-0.017,-0.038,-0.079
'0:01.926',-0.06,0.034,0.005,-0.014,-0.036,-0.078
'0:01.927',-0.058,0.031,0.007,-0.011,-0.032,-0.073
'0:01.928',-0.06,0.028,0.009,-0.008,-0.027,-0.067
'0:01.929',-0.056,0.023,0.009,-0.005,-0.022,-0.06
'0:01.930',-0.049,0.016,0.007,-0.005,-0.021,-0.054
'0:01.931',-0.037,0.008,0.002,-0.008,-0.022,-0.05
'0:01.932',-0.02,-0.002,-0.003,-0.012,-0.025,-0.049
'0:01.933',-0.005,-0.012,-0.01,-0.019,-0.029,-0.05
'0:01.934',0.009,-0.022,-0.017,-0.026,-0.036,-0.052
'0:01.935',0.023,-0.031,-0.027,-0.034,-0.044,-0.058
'0:01.936',0.044,-0.041,-0.039,-0.045,-0.053,-0.064
'0:01.937',0.07,-0.052,-0.051,-0.056,-0.066,-0.075
'0:01.938',0.096,-0.062,-0.065,-0.07,-0.079,-0.088
'0:01.939',0.128,-0.072,-0.077,-0.082,-0.093,-0.101
'0:01.940',0.166,-0.081,-0.088,-0.093,-0.104,-0.114
'0:01.941',0.211,-0.088,-0.097,-0.101,-0.113,-0.122
'0:01.942',0.264,-0.096,-0.104,-0.106,-0.114,-0.123
'0:01.943',0.328,-0.104,-0.11,-0.107,-0.111,-0.116
'0:01.944',0.387,-0.114,-0.113,-0.104,-0.101,-0.1
'0:01.945',0.45,-0.122,-0.113,-0.098,-0.084,-0.073
'0:01.946',0.521,-0.131,-0.111,-0.086,-0.061,-0.038
'0:01.947',0.595,-0.136,-0.108,-0.071,-0.031,0.006
'0:01.948',0.664,-0.142,-0.102,-0.053,0.005,0.058
'0:01.949',0.725,-0.147,-0.095,-0.032,0.041,0.114
'0:01.950',0.78,-0.152,-0.088,-0.011,0.079,0.173
'0:01.951',0.828,-0.156,-0.081,0.008,0.115,0.231
'0:01.952',0.872,-0.158,-0.072,0.029,0.15,0.288
'0:01.953',0.918,-0.156,-0.062,0.049,0.184,0.34
'0:01.954',0.966,-0.152,-0.049,0.07,0.215,0.389
'0:01.955',1.006,-0.144,-0.037,0.088,0.243,0.431
'0:01.956',1.038,-0.135,-0.026,0.105,0.268,0.466
'0:01.957',1.074,-0.124,-0.016,0.119,0.286,0.491
'0:01.958',1.114,-0.114,-0.008,0.128,0.299,0.506
'0:01.959',1.147,-0.102,-0.002,0.135,0.305,0.512
'0:01.960',1.163,-0.091,0.002,0.138,0.306,0.508
'0:01.961',1.17,-0.082,0.006,0.138,0.301,0.498
'0:01.962',1.173,-0.074,0.01,0.136,0.295,0.484
'0:01.963',1.155,-0.068,0.011,0.135,0.288,0.469
'0:01.964',1.11,-0.062,0.015,0.132,0.281,0.455
'0:01.965',1.06,-0.054,0.02,0.133,0.276,0.441
'0:01.966',0.998,-0.043,0.029,0.136,0.274,0.428
'0:01.967',0.921,-0.029,0.041,0.141,0.272,0.415
'0:01.968',0.844,-0.013,0.055,0.146,0.271,0.401
'0:01.969',0.759,0.004,0.069,0.152,0.268,0.385
'0:01.970',0.641,0.022,0.083,0.156,0.262,0.365
'0:01.971',0.502,0.04,0.096,0.158,0.252,0.342
'0:01.972',0.374,0.062,0.109,0.16,0.24,0.316
'0:01.973',0.281,0.084,0.123,0.162,0.227,0.288
'0:01.974',0.222,0.109,0.138,0.164,0.213,0.259
'0:01.975',0.162,0.131,0.15,0.164,0.199,0.231
'0:01.976',0.094,0.15,0.158,0.16,0.183,0.204
'0:01.977',0.026,0.16,0.159,0.152,0.165,0.176
'0:01.978',-0.041,0.164,0.155,0.14,0.144,0.146
'0:01.979',-0.111,0.162,0.146,0.125,0.122,0.116
'0:01.980',-0.18,0.157,0.135,0.109,0.1,0.087
'0:01.981',-0.238,0.148,0.123,0.094,0.08,0.061
'0:01.982',-0.281,0.14,0.112,0.081,0.063,0.038
'0:01.983',-0.306,0.129,0.102,0.069,0.05,0.021
'0:01.984',-0.32,0.118,0.091,0.059,0.039,0.009
'0:01.985',-0.322,0.106,0.083,0.051,0.032,0.001
'0:01.986',-0.323,0.094,0.077,0.046,0.029,-0.002
'0:01.987',-0.321,0.083,0.072,0.044,0.028,-0.001
'0:01.988',-0.302,0.072,0.067,0.043,0.03,0.003
'0:01.989',-0.262,0.063,0.064,0.042,0.032,0.01
'0:01.990',-0.211,0.051,0.059,0.041,0.036,0.018
'0:01.991',-0.15,0.042,0.054,0.04,0.038,0.026
'0:01.992',-0.092,0.033,0.049,0.038,0.04,0.032
'0:01.993',-0.054,0.028,0.046,0.037,0.041,0.037
'0:01.994',-0.036,0.025,0.042,0.034,0.041,0.041
'0:01.995',-0.036,0.024,0.04,0.033,0.038,0.04
'0:01.996',-0.036,0.023,0.036,0.029,0.033,0.036
'0:01.997',-0.025,0.022,0.031,0.023,0.025,0.027
'0:01.998',-0.014,0.022,0.025,0.015,0.013,0.015
'0:01.999',-0.008,0.022,0.02,0.008,0.001,-0.001
'0:02.000',-0.005,0.023,0.016,0.001,-0.01,-0.017
'0:02.001',-0.01,0.024,0.012,-0.005,-0.019,-0.032
'0:02.002',-0.02,0.026,0.01,-0.008,-0.026,-0.046
'0:02.003',-0.027,0.027,0.008,-0.012,-0.031,-0.056
'0:02.004',-0.035,0.026,0.007,-0.012,-0.032,-0.061
'0:02.005',-0.043,0.025,0.008,-0.012,-0.032,-0.064
'0:02.006',-0.055,0.025,0.01,-0.009,-0.028,-0.062
'0:02.007',-0.067,0.024,0.015,-0.003,-0.022,-0.055
'0:02.008',-0.073,0.024,0.02,0.004,-0.012,-0.044
'0:02.009',-0.077,0.024,0.025,0.011,-0.002,-0.031
'0:02.010',-0.081,0.024,0.029,0.018,0.009,-0.016
'0:02.011',-0.078,0.022,0.032,0.023,0.018,-0.002
'0:02.012',-0.071,0.021,0.034,0.028,0.025,0.01
'0:02.013',-0.072,0.021,0.037,0.031,0.03,0.017
'0:02.014',-0.075,0.022,0.038,0.034,0.032,0.022
'0:02.015',-0.08,0.025,0.039,0.034,0.031,0.022
'0:02.016',-0.081,0.026,0.037,0.033,0.028,0.019
'0:02.017',-0.076,0.027,0.034,0.028,0.021,0.011
'0:02.018',-0.076,0.028,0.03,0.023,0.011,-0.001
'0:02.019',-0.078,0.029,0.024,0.016,0,-0.014
'0:02.020',-0.076,0.031,0.02,0.01,-0.011,-0.029
'0:02.021',-0.076,0.031,0.016,0.004,-0.021,-0.044
'0:02.022',-0.078,0.033,0.013,-0.001,-0.028,-0.056
'0:02.023',-0.075,0.033,0.012,-0.005,-0.034,-0.065
'0:02.024',-0.069,0.033,0.01,-0.007,-0.036,-0.071
'0:02.025',-0.069,0.031,0.011,-0.008,-0.036,-0.073
'0:02.026',-0.068,0.029,0.013,-0.006,-0.033,-0.07
'0:02.027',-0.07,0.028,0.017,-0.002,-0.026,-0.062
'0:02.028',-0.067,0.028,0.022,0.005,-0.017,-0.049
'0:02.029',-0.06,0.026,0.026,0.012,-0.006,-0.035
'0:02.030',-0.062,0.024,0.029,0.018,0.004,-0.019
'0:02.031',-0.065,0.022,0.031,0.023,0.012,-0.004
'0:02.032',-0.061,0.02,0.032,0.027,0.02,0.009
'0:02.033',-0.055,0.02,0.033,0.031,0.025,0.019
'0:02.034',-0.051,0.02,0.033,0.032,0.028,0.024
'0:02.035',-0.052,0.021,0.032,0.032,0.028,0.026
'0:02.036',-0.055,0.021,0.029,0.031,0.025,0.022
'0:02.037',-0.053,0.021,0.025,0.026,0.016,0.014
'0:02.038',-0.051,0.019,0.02,0.019,0.006,0.001
'0:02.039',-0.047,0.019,0.015,0.012,-0.005,-0.013
'0:02.040',-0.047,0.019,0.01,0.005,-0.015,-0.029
'0:02.041',-0.047,0.021,0.007,-0.001,-0.023,-0.042
'0:02.042',-0.049,0.022,0.006,-0.006,-0.03,-0.053
'0:02.043',-0.053,0.023,0.004,-0.01,-0.035,-0.062
'0:02.044',-0.059,0.022,0.003,-0.012,-0.037,-0.067
'0:02.045',-0.06,0.021,0.003,-0.013,-0.037,-0.068
'0:02.046',-0.06,0.021,0.006,-0.011,-0.033,-0.066
'0:02.047',-0.064,0.022,0.01,-0.007,-0.026,-0.058
'0:02.048',-0.066,0.022,0.015,0,-0.016,-0.048
'0:02.049',-0.066,0.023,0.019,0.007,-0.005,-0.034
'0:02.050',-0.065,0.021,0.022,0.012,0.005,-0.021
'0:02.051',-0.062,0.019,0.025,0.017,0.014,-0.007
'0:02.052',-0.061,0.018,0.026,0.02,0.021,0.005
'0:02.053',-0.061,0.017,0.026,0.023,0.026,0.015
'0:02.054',-0.063,0.018,0.027,0.025,0.028,0.023
'0:02.055',-0.062,0.019,0.027,0.025,0.029,0.026
'0:02.056',-0.059,0.019,0.026,0.023,0.027,0.026
'0:02.057',-0.057,0.021,0.025,0.021,0.023,0.021
'0:02.058',-0.061,0.022,0.023,0.019,0.018,0.012
'0:02.059',-0.06,0.026,0.022,0.016,0.009,0.001
'0:02.060',-0.053,0.031,0.023,0.014,0.002,-0.012
'0:02.061',-0.047,0.036,0.024,0.012,-0.005,-0.026
'0:02.062',-0.046,0.038,0.024,0.01,-0.011,-0.037
'0:02.063',-0.043,0.039,0.024,0.008,-0.016,-0.046
'0:02.064',-0.04,0.038,0.024,0.006,-0.019,-0.051
'0:02.065',-0.037,0.036,0.024,0.005,-0.019,-0.052
'0:02.066',-0.034,0.035,0.026,0.006,-0.017,-0.049
'0:02.067',-0.036,0.033,0.026,0.008,-0.012,-0.041
'0:02.068',-0.038,0.029,0.027,0.008,-0.008,-0.032
'0:02.069',-0.039,0.023,0.025,0.007,-0.005,-0.023
'0:02.070',-0.041,0.015,0.02,0.002,-0.005,-0.016
'0:02.071',-0.046,0.004,0.01,-0.006,-0.008,-0.012
'0:02.072',-0.05,-0.008,-0.003,-0.017,-0.015,-0.013
'0:02.073',-0.05,-0.018,-0.018,-0.03,-0.025,-0.017
'0:02.074',-0.051,-0.03,-0.035,-0.044,-0.036,-0.026
'0:02.075',-0.057,-0.041,-0.052,-0.06,-0.051,-0.038
'0:02.076',-0.062,-0.052,-0.072,-0.079,-0.068,-0.054
'0:02.077',-0.063,-0.065,-0.093,-0.099,-0.086,-0.073
'0:02.078',-0.065,-0.076,-0.113,-0.118,-0.105,-0.091
'0:02.079',-0.067,-0.084,-0.128,-0.134,-0.121,-0.108
'0:02.080',-0.069,-0.088,-0.136,-0.143,-0.13,-0.122
'0:02.081',-0.075,-0.086,-0.138,-0.144,-0.134,-0.13
'0:02.082',-0.079,-0.081,-0.133,-0.138,-0.13,-0.132
'0:02.083',-0.076,-0.073,-0.121,-0.126,-0.121,-0.128
'0:02.084',-0.075,-0.063,-0.105,-0.111,-0.108,-0.12
'0:02.085',-0.076,-0.052,-0.086,-0.093,-0.093,-0.109
'0:02.086',-0.076,-0.041,-0.068,-0.075,-0.076,-0.095
'0:02.087',-0.072,-0.031,-0.049,-0.056,-0.059,-0.078
'0:02.088',-0.067,-0.022,-0.032,-0.037,-0.039,-0.058
'0:02.089',-0.065,-0.016,-0.017,-0.022,-0.022,-0.038
'0:02.090',-0.067,-0.01,-0.005,-0.008,-0.005,-0.018
'0:02.091',-0.065,-0.006,0.006,0.005,0.009,0
'0:02.092',-0.056,-0.002,0.015,0.014,0.022,0.016
'0:02.093',-0.051,0.003,0.023,0.024,0.032,0.027
'0:02.094',-0.05,0.009,0.029,0.03,0.037,0.036
'0:02.095',-0.046,0.013,0.032,0.033,0.038,0.039
'0:02.096',-0.04,0.016,0.032,0.031,0.035,0.036
'0:02.097',-0.035,0.017,0.029,0.026,0.027,0.029
'0:02.098',-0.036,0.017,0.024,0.018,0.016,0.016
'0:02.099',-0.037,0.017,0.02,0.009,0.003,0.001
'0:02.100',-0.034,0.017,0.015,-0.001,-0.009,-0.015
'0:02.101',-0.027,0.018,0.01,-0.01,-0.02,-0.031
'0:02.102',-0.022,0.019,0.005,-0.017,-0.029,-0.044
'0:02.103',-0.021,0.016,0.001,-0.024,-0.036,-0.054
'0:02.104',-0.023,0.012,-0.003,-0.03,-0.042,-0.06
'0:02.105',-0.022,0.008,-0.006,-0.032,-0.042,-0.061
'0:02.106',-0.02,0.004,-0.007,-0.031,-0.039,-0.058
'0:02.107',-0.021,0.001,-0.006,-0.027,-0.031,-0.048
'0:02.108',-0.021,-0.001,-0.002,-0.02,-0.021,-0.036
'0:02.109',-0.016,-0.003,0.001,-0.012,-0.009,-0.021
'0:02.110',-0.016,-0.004,0.005,-0.005,0.001,-0.006
'0:02.111',-0.016,-0.006,0.007,0.001,0.01,0.007
'0:02.112',-0.013,-0.008,0.009,0.006,0.017,0.017
'0:02.113',-0.012,-0.008,0.011,0.008,0.021,0.025
'0:02.114',-0.012,-0.008,0.011,0.009,0.023,0.029
'0:02.115',-0.016,-0.006,0.011,0.008,0.022,0.028
'0:02.116',-0.016,-0.005,0.007,0.003,0.018,0.023
'0:02.117',-0.011,-0.004,0.005,-0.003,0.011,0.014
'0:02.118',-0.011,-0.003,0.001,-0.008,0.002,0.001
'0:02.119',-0.016,0,-0.002,-0.014,-0.008,-0.014
'0:02.120',-0.014,0.003,-0.005,-0.02,-0.018,-0.029
'0:02.121',-0.013,0.006,-0.007,-0.025,-0.027,-0.044
'0:02.122',-0.012,0.008,-0.009,-0.029,-0.033,-0.054
'0:02.123',-0.006,0.007,-0.011,-0.033,-0.038,-0.063
'0:02.124',-0.004,0.005,-0.012,-0.036,-0.041,-0.066
'0:02.125',-0.002,0.003,-0.013,-0.035,-0.04,-0.066
'0:02.126',0.002,0,-0.011,-0.034,-0.036,-0.061
'0:02.127',-0.001,-0.001,-0.008,-0.029,-0.029,-0.052
'0:02.128',-0.002,-0.001,-0.004,-0.023,-0.019,-0.041
'0:02.129',-0.002,-0.002,0.001,-0.017,-0.009,-0.027
'0:02.130',-0.005,-0.003,0.006,-0.012,0.001,-0.012
'0:02.131',-0.005,-0.003,0.009,-0.006,0.01,0.002
'0:02.132',0.001,-0.003,0.012,-0.001,0.018,0.015
'0:02.133',0.002,-0.001,0.015,0.003,0.022,0.024
'0:02.134',0.004,0.001,0.016,0.005,0.025,0.029
'0:02.135',0.002,0.004,0.016,0.006,0.026,0.031
'0:02.136',0.005,0.006,0.015,0.005,0.023,0.029
'0:02.137',0.008,0.007,0.011,0.002,0.018,0.024
'0:02.138',0.011,0.008,0.007,-0.003,0.011,0.015
'0:02.139',0.012,0.01,0.004,-0.008,0.002,0.003
'0:02.140',0.02,0.011,0.001,-0.012,-0.006,-0.01
'0:02.141',0.024,0.014,-0.001,-0.016,-0.013,-0.022
'0:02.142',0.023,0.015,-0.004,-0.018,-0.019,-0.032
'0:02.143',0.024,0.016,-0.006,-0.02,-0.025,-0.04
'0:02.144',0.025,0.014,-0.007,-0.022,-0.027,-0.044
'0:02.145',0.025,0.011,-0.007,-0.023,-0.028,-0.043
'0:02.146',0.027,0.01,-0.005,-0.02,-0.022,-0.038
'0:02.147',0.031,0.009,-0.002,-0.015,-0.015,-0.027
'0:02.148',0.037,0.008,0.003,-0.008,-0.002,-0.012
'0:02.149',0.047,0.007,0.008,-0.001,0.01,0.005
'0:02.150',0.052,0.005,0.011,0.006,0.021,0.021
'0:02.151',0.056,0.002,0.013,0.011,0.03,0.035
'0:02.152',0.061,-0.001,0.014,0.014,0.038,0.046
'0:02.153',0.065,-0.003,0.016,0.016,0.042,0.055
'0:02.154',0.07,-0.003,0.016,0.018,0.045,0.061
'0:02.155',0.074,-0.003,0.016,0.019,0.046,0.063
'0:02.156',0.078,-0.003,0.015,0.016,0.042,0.061
'0:02.157',0.085,-0.002,0.01,0.011,0.036,0.054
'0:02.158',0.09,-0.003,0.004,0.005,0.026,0.044
'0:02.159',0.089,-0.004,-0.002,-0.002,0.016,0.03
'0:02.160',0.093,-0.004,-0.007,-0.008,0.005,0.016
'0:02.161',0.098,-0.003,-0.01,-0.014,-0.004,0.001
'0:02.162',0.1,-0.003,-0.013,-0.018,-0.01,-0.012
'0:02.163',0.101,-0.003,-0.015,-0.023,-0.015,-0.021
'0:02.164',0.101,-0.004,-0.016,-0.025,-0.017,-0.026
'0:02.165',0.105,-0.004,-0.015,-0.023,-0.015,-0.026
'0:02.166',0.111,-0.005,-0.011,-0.02,-0.01,-0.02
'0:02.167',0.113,-0.004,-0.006,-0.013,0,-0.008
'0:02.168',0.114,-0.004,0,-0.005,0.012,0.008
'0:02.169',0.115,-0.004,0.006,0.005,0.027,0.026
'0:02.170',0.116,-0.006,0.01,0.014,0.041,0.046
'0:02.171',0.118,-0.008,0.013,0.021,0.053,0.063
'0:02.172',0.121,-0.01,0.015,0.026,0.061,0.076
'0:02.173',0.125,-0.011,0.016,0.03,0.068,0.087
'0:02.174',0.129,-0.009,0.017,0.032,0.071,0.094
'0:02.175',0.131,-0.008,0.017,0.031,0.069,0.096
'0:02.176',0.135,-0.008,0.016,0.028,0.064,0.093
'0:02.177',0.145,-0.008,0.011,0.023,0.056,0.085
'0:02.178',0.147,-0.01,0.005,0.017,0.045,0.073
'0:02.179',0.147,-0.01,0,0.01,0.035,0.058
'0:02.180',0.155,-0.008,-0.005,0.004,0.025,0.045
'0:02.181',0.158,-0.006,-0.007,-0.002,0.018,0.033
'0:02.182',0.157,-0.005,-0.01,-0.006,0.013,0.025
'0:02.183',0.162,-0.004,-0.012,-0.008,0.011,0.02
'0:02.184',0.172,-0.006,-0.012,-0.01,0.011,0.017
'0:02.185',0.179,-0.008,-0.012,-0.009,0.015,0.019
'0:02.186',0.183,-0.01,-0.011,-0.006,0.019,0.024
'0:02.187',0.186,-0.011,-0.006,0,0.028,0.036
'0:02.188',0.192,-0.011,-0.001,0.008,0.038,0.049
'0:02.189',0.201,-0.011,0.004,0.016,0.05,0.067
'0:02.190',0.205,-0.013,0.007,0.023,0.06,0.086
'0:02.191',0.208,-0.016,0.009,0.028,0.068,0.102
'0:02.192',0.212,-0.017,0.011,0.031,0.075,0.116
'0:02.193',0.214,-0.019,0.011,0.034,0.079,0.127
'0:02.194',0.217,-0.019,0.011,0.035,0.08,0.132
'0:02.195',0.219,-0.018,0.01,0.034,0.079,0.132
'0:02.196',0.222,-0.017,0.007,0.033,0.074,0.128
'0:02.197',0.226,-0.017,0.003,0.028,0.068,0.12
'0:02.198',0.229,-0.017,-0.002,0.02,0.058,0.108
'0:02.199',0.231,-0.018,-0.007,0.013,0.05,0.095
'0:02.200',0.237,-0.019,-0.012,0.008,0.041,0.082
'0:02.201',0.242,-0.018,-0.015,0.002,0.035,0.07
'0:02.202',0.245,-0.018,-0.017,-0.003,0.029,0.061
'0:02.203',0.25,-0.019,-0.02,-0.006,0.026,0.055
'0:02.204',0.252,-0.021,-0.021,-0.009,0.025,0.052
'0:02.205',0.255,-0.023,-0.021,-0.008,0.027,0.053
'0:02.206',0.258,-0.024,-0.019,-0.005,0.032,0.059
'0:02.207',0.26,-0.025,-0.015,0.001,0.039,0.067
'0:02.208',0.262,-0.026,-0.011,0.008,0.049,0.08
'0:02.209',0.267,-0.028,-0.006,0.016,0.058,0.093
'0:02.210',0.271,-0.029,-0.002,0.023,0.068,0.108
'0:02.211',0.272,-0.032,0,0.028,0.075,0.122
'0:02.212',0.272,-0.033,0.001,0.031,0.08,0.134
'0:02.213',0.276,-0.034,0.002,0.032,0.084,0.144
'0:02.214',0.278,-0.033,0.002,0.033,0.086,0.147
'0:02.215',0.274,-0.032,0.001,0.032,0.085,0.148
'0:02.216',0.27,-0.033,-0.003,0.028,0.08,0.143
'0:02.217',0.272,-0.032,-0.009,0.022,0.072,0.133
'0:02.218',0.269,-0.033,-0.015,0.014,0.061,0.12
'0:02.219',0.264,-0.031,-0.02,0.006,0.049,0.103
'0:02.220',0.262,-0.029,-0.024,-0.001,0.037,0.085
'0:02.221',0.262,-0.027,-0.025,-0.006,0.027,0.069
'0:02.222',0.261,-0.025,-0.026,-0.01,0.019,0.056
'0:02.223',0.257,-0.024,-0.026,-0.012,0.013,0.047
'0:02.224',0.252,-0.024,-0.026,-0.014,0.01,0.04
'0:02.225',0.247,-0.026,-0.026,-0.014,0.01,0.038
'0:02.226',0.246,-0.027,-0.025,-0.012,0.013,0.039
'0:02.227',0.241,-0.029,-0.022,-0.01,0.018,0.044
'0:02.228',0.239,-0.031,-0.02,-0.005,0.026,0.052
'0:02.229',0.239,-0.034,-0.016,-0.001,0.033,0.063
'0:02.230',0.231,-0.036,-0.015,0.003,0.039,0.073
'0:02.231',0.222,-0.04,-0.014,0.007,0.045,0.081
'0:02.232',0.215,-0.041,-0.013,0.009,0.048,0.089
'0:02.233',0.212,-0.04,-0.012,0.011,0.05,0.093
'0:02.234',0.212,-0.039,-0.012,0.011,0.048,0.093
'0:02.235',0.202,-0.036,-0.014,0.009,0.045,0.09
'0:02.236',0.192,-0.033,-0.016,0.005,0.038,0.081
'0:02.237',0.189,-0.033,-0.021,-0.003,0.027,0.069
'0:02.238',0.187,-0.032,-0.025,-0.012,0.015,0.052
'0:02.239',0.18,-0.031,-0.029,-0.021,0.001,0.034
'0:02.240',0.172,-0.029,-0.032,-0.029,-0.012,0.016
'0:02.241',0.166,-0.027,-0.034,-0.034,-0.025,-0.001
'0:02.242',0.157,-0.025,-0.035,-0.038,-0.033,-0.015
'0:02.243',0.151,-0.025,-0.036,-0.042,-0.04,-0.027
'0:02.244',0.146,-0.026,-0.037,-0.044,-0.045,-0.035
'0:02.245',0.137,-0.027,-0.036,-0.044,-0.046,-0.038
'0:02.246',0.126,-0.026,-0.033,-0.041,-0.042,-0.037
'0:02.247',0.116,-0.026,-0.029,-0.036,-0.035,-0.029
'0:02.248',0.114,-0.026,-0.023,-0.029,-0.025,-0.018
'0:02.249',0.112,-0.024,-0.018,-0.021,-0.014,-0.004
'0:02.250',0.102,-0.024,-0.014,-0.014,-0.004,0.01
'0:02.251',0.092,-0.024,-0.011,-0.008,0.005,0.022
'0:02.252',0.086,-0.024,-0.009,-0.005,0.012,0.032
'0:02.253',0.081,-0.022,-0.007,-0.003,0.017,0.039
'0:02.254',0.077,-0.021,-0.006,-0.002,0.019,0.042
'0:02.255',0.072,-0.019,-0.006,-0.003,0.016,0.041
'0:02.256',0.071,-0.017,-0.009,-0.007,0.011,0.036
'0:02.257',0.072,-0.017,-0.012,-0.013,0.002,0.026
'0:02.258',0.068,-0.017,-0.017,-0.021,-0.008,0.012
'0:02.259',0.062,-0.017,-0.023,-0.028,-0.02,-0.005
'0:02.260',0.062,-0.016,-0.027,-0.034,-0.031,-0.022
'0:02.261',0.063,-0.015,-0.031,-0.039,-0.041,-0.037
'0:02.262',0.06,-0.013,-0.032,-0.042,-0.049,-0.051
'0:02.263',0.051,-0.013,-0.034,-0.046,-0.054,-0.061
'0:02.264',0.046,-0.012,-0.034,-0.046,-0.056,-0.069
'0:02.265',0.047,-0.011,-0.032,-0.045,-0.056,-0.071
'0:02.266',0.045,-0.01,-0.028,-0.041,-0.051,-0.067
'0:02.267',0.037,-0.008,-0.022,-0.034,-0.042,-0.058
'0:02.268',0.032,-0.005,-0.016,-0.026,-0.031,-0.044
'0:02.269',0.031,-0.004,-0.01,-0.017,-0.019,-0.028
'0:02.270',0.026,-0.004,-0.005,-0.011,-0.008,-0.013
'0:02.271',0.022,-0.006,-0.002,-0.007,0,0.001
'0:02.272',0.026,-0.007,0,-0.005,0.006,0.011
'0:02.273',0.023,-0.007,0.002,-0.003,0.009,0.018
'0:02.274',0.017,-0.004,0.002,-0.002,0.009,0.021
'0:02.275',0.012,-0.003,0.002,-0.003,0.008,0.021
'0:02.276',0.006,-0.001,-0.001,-0.006,0.003,0.017
'0:02.277',0.005,-0.001,-0.005,-0.012,-0.005,0.008
'0:02.278',0.006,0.001,-0.009,-0.019,-0.014,-0.005
'0:02.279',0,0.003,-0.013,-0.026,-0.024,-0.018
'0:02.280',-0.005,0.004,-0.017,-0.032,-0.034,-0.034
'0:02.281',-0.006,0.006,-0.018,-0.036,-0.04,-0.046
'0:02.282',-0.006,0.008,-0.02,-0.039,-0.046,-0.057
'0:02.283',-0.008,0.01,-0.02,-0.04,-0.049,-0.065
'0:02.284',-0.01,0.008,-0.02,-0.041,-0.05,-0.07
'0:02.285',-0.006,0.008,-0.018,-0.04,-0.05,-0.07
'0:02.286',-0.006,0.007,-0.016,-0.036,-0.046,-0.067
'0:02.287',-0.008,0.008,-0.011,-0.032,-0.039,-0.059
'0:02.288',-0.009,0.008,-0.005,-0.025,-0.029,-0.048
'0:02.289',-0.005,0.009,0,-0.017,-0.018,-0.035
'0:02.290',-0.005,0.009,0.005,-0.012,-0.009,-0.021
'0:02.291',-0.01,0.008,0.007,-0.007,0,-0.007
'0:02.292',-0.008,0.008,0.01,-0.004,0.007,0.004
'0:02.293',-0.006,0.01,0.012,-0.001,0.011,0.012
'0:02.294',-0.006,0.012,0.014,0.001,0.014,0.017
'0:02.295',-0.014,0.014,0.014,0.001,0.013,0.019
'0:02.296',-0.016,0.015,0.012,-0.001,0.01,0.016
'0:02.297',-0.012,0.015,0.009,-0.006,0.005,0.009
'0:02.298',-0.012,0.016,0.005,-0.011,-0.004,-0.001
'0:02.299',-0.014,0.017,0,-0.017,-0.013,-0.015
'0:02.300',-0.017,0.019,-0.003,-0.023,-0.021,-0.028
'0:02.301',-0.017,0.019,-0.005,-0.027,-0.029,-0.039
'0:02.302',-0.018,0.019,-0.006,-0.031,-0.035,-0.05
'0:02.303',-0.015,0.018,-0.007,-0.032,-0.038,-0.057
'0:02.304',-0.012,0.017,-0.007,-0.033,-0.04,-0.061
'0:02.305',-0.014,0.016,-0.006,-0.031,-0.038,-0.059
'0:02.306',-0.013,0.016,-0.002,-0.026,-0.032,-0.055
'0:02.307',-0.012,0.017,0.002,-0.019,-0.024,-0.046
'0:02.308',-0.011,0.018,0.007,-0.01,-0.012,-0.034
'0:02.309',-0.006,0.018,0.012,-0.001,-0.001,-0.02
'0:02.310',-0.005,0.017,0.016,0.007,0.009,-0.005
'0:02.311',-0.01,0.015,0.018,0.012,0.016,0.007
'0:02.312',-0.01,0.013,0.02,0.015,0.021,0.016
'0:02.313',-0.009,0.013,0.019,0.016,0.025,0.022
'0:02.314',-0.005,0.013,0.02,0.016,0.025,0.026
'0:02.315',-0.006,0.015,0.02,0.016,0.022,0.027
'0:02.316',-0.007,0.017,0.017,0.012,0.018,0.024
'0:02.317',-0.006,0.019,0.014,0.008,0.012,0.017
'0:02.318',-0.005,0.022,0.01,0.002,0.003,0.006
'0:02.319',-0.007,0.024,0.006,-0.005,-0.006,-0.007
'0:02.320',-0.007,0.028,0.004,-0.01,-0.016,-0.021
'0:02.321',-0.006,0.03,0.002,-0.014,-0.023,-0.032
'0:02.322',-0.008,0.032,0.003,-0.017,-0.029,-0.044
'0:02.323',-0.011,0.031,0.003,-0.019,-0.032,-0.052
'0:02.324',-0.01,0.029,0.003,-0.021,-0.035,-0.057
'0:02.325',-0.007,0.028,0.003,-0.02,-0.034,-0.058
'0:02.326',-0.007,0.026,0.005,-0.017,-0.03,-0.056
'0:02.327',-0.012,0.024,0.007,-0.012,-0.024,-0.047
'0:02.328',-0.011,0.024,0.011,-0.007,-0.014,-0.035
'0:02.329',-0.009,0.024,0.016,0,-0.003,-0.02
'0:02.330',-0.007,0.022,0.02,0.006,0.007,-0.004
'0:02.331',-0.01,0.021,0.022,0.012,0.015,0.01
'0:02.332',-0.011,0.019,0.026,0.015,0.021,0.021
'0:02.333',-0.005,0.019,0.027,0.017,0.025,0.027
'0:02.334',0.005,0.021,0.027,0.019,0.026,0.031
'0:02.335',0.006,0.022,0.027,0.017,0.025,0.029
'0:02.336',0.005,0.023,0.025,0.015,0.02,0.024
'0:02.337',0.012,0.022,0.02,0.011,0.013,0.014
'0:02.338',0.014,0.022,0.015,0.005,0.004,0.002
'0:02.339',0.012,0.023,0.009,-0.001,-0.008,-0.013
'0:02.340',0.015,0.024,0.005,-0.007,-0.019,-0.029
'0:02.341',0.015,0.026,0.001,-0.012,-0.028,-0.042
'0:02.342',0.015,0.028,-0.001,-0.015,-0.035,-0.055
'0:02.343',0.015,0.029,-0.001,-0.017,-0.038,-0.063
'0:02.344',0.012,0.028,-0.001,-0.016,-0.039,-0.066
'0:02.345',0.015,0.027,0.002,-0.014,-0.036,-0.064
'0:02.346',0.014,0.028,0.006,-0.008,-0.03,-0.058
'0:02.347',0.007,0.028,0.012,-0.001,-0.02,-0.048
'0:02.348',0.002,0.029,0.018,0.007,-0.008,-0.034
'0:02.349',0.008,0.029,0.023,0.014,0.004,-0.019
'0:02.350',0.012,0.028,0.028,0.021,0.014,-0.002
'0:02.351',0.012,0.026,0.032,0.026,0.023,0.011
'0:02.352',0.011,0.024,0.034,0.031,0.03,0.023
'0:02.353',0.007,0.024,0.035,0.033,0.034,0.031
'0:02.354',0.005,0.024,0.034,0.033,0.035,0.036
'0:02.355',0.004,0.024,0.031,0.033,0.032,0.037
'0:02.356',0.001,0.024,0.026,0.028,0.028,0.033
'0:02.357',0.002,0.023,0.02,0.022,0.02,0.025
'0:02.358',0.004,0.022,0.015,0.015,0.011,0.014
'0:02.359',0.003,0.022,0.01,0.008,0,-0.001
'0:02.360',0.005,0.024,0.008,0.001,-0.01,-0.016
'0:02.361',0.01,0.027,0.006,-0.004,-0.018,-0.03
'0:02.362',0.011,0.03,0.006,-0.008,-0.024,-0.041
'0:02.363',0.009,0.031,0.006,-0.01,-0.027,-0.048
'0:02.364',0.005,0.033,0.007,-0.01,-0.028,-0.052
'0:02.365',0.004,0.033,0.008,-0.008,-0.026,-0.05
'0:02.366',0.009,0.035,0.011,-0.003,-0.02,-0.044
'0:02.367',0.012,0.035,0.015,0.003,-0.011,-0.033
'0:02.368',0.016,0.036,0.019,0.01,-0.001,-0.02
'0:02.369',0.019,0.034,0.023,0.016,0.01,-0.004
'0:02.370',0.016,0.03,0.026,0.023,0.02,0.012
'0:02.371',0.017,0.026,0.026,0.027,0.028,0.027
'0:02.372',0.022,0.022,0.026,0.03,0.034,0.038
